,C/O ratio,CH4 in,CH4 out,CO out,H2 out,H2O out,CO2 out,Exit temp,Max temp,Dist to max temp,O2 conv
0,0.6000000000000001,0.04220610931192466,8.037864165712467e-05,0.03900733128761946,0.05763576184169181,0.026090030507881827,0.0026220397376505947,1826.499379336682,1950.8807977147717,13.55,0.9999999926369261
1,0.7000000000000002,0.04764223879568619,0.0012271201942007383,0.04022505957218069,0.06671067841018088,0.02255921232730725,0.0026378775537017306,1634.862993478318,1905.9396006079398,12.790000000000001,0.9999999999233758
2,0.8,0.05273657570711542,0.0056579986597375615,0.038621219238349394,0.06644219321108107,0.02193144869654922,0.0026838207171239253,1553.1785249060397,1872.6410052352578,12.3,0.9999999999901158
3,0.9000000000000001,0.05752037248751414,0.011328226416303442,0.03643448787404427,0.06335821681266574,0.02199347504769436,0.002741489523068868,1510.7325529224224,1845.1452251964154,11.96,0.9999999999962706
4,1.0,0.06202118410625546,0.01729810381804019,0.034316401665594416,0.059687238091609994,0.02212485377266024,0.0028041017854915366,1483.042033814303,1819.544138458051,11.71,0.9999999999979198
5,1.1,0.0662633991614029,0.023333606388032304,0.03228492846124883,0.05582311066748851,0.022220491900284592,0.002867874961654549,1462.3656987560641,1794.7901605841541,11.510000000000002,0.9999999999986113
6,1.1999999999999995,0.07026868199272561,0.029244648408726277,0.030416941118635157,0.052048966153712156,0.02227232138786768,0.0029334545614907322,1446.4249586176604,1771.5963555217093,11.370000000000001,0.9999999999989593
7,1.3000000000000003,0.07405634272972031,0.03499261752064192,0.028675772572282005,0.04837774411777992,0.022291271574539785,0.0029990951154756445,1433.7053041698734,1748.170646951527,11.250000000000002,0.9999999999991551
8,1.3999999999999995,0.07764364861664726,0.040567101546041304,0.0270654418157481,0.044855161786513886,0.022264065345354297,0.0030645032176609996,1423.2333988283187,1724.507518559083,11.160000000000002,0.9999999999992762
9,1.6000000000000005,0.08427758988601222,0.05115919627431191,0.024186610563157185,0.03826881434201374,0.02209958116202814,0.0031929016039602847,1407.010186700773,1675.6510986799117,11.030000000000001,0.9999999999994031
10,1.8,0.09027684884714632,0.06102176655043687,0.021677235860075295,0.03222807920395442,0.02184473283276242,0.0033152161971443605,1395.430492598988,1624.963710073124,10.950000000000001,0.999999999999439
11,2.0,0.09572834938139431,0.07056078910651299,0.02004570790284565,0.02746593116687127,0.020958200761122953,0.003429489903365176,1384.231659908855,1574.5437200910899,10.89,0.9999999999995248
12,2.2,0.10070383531597825,0.07836139347660692,0.017783384723521208,0.022516835687457153,0.020899318125404392,0.0035453035674696755,1373.7985237608814,1526.8260108098843,10.85,0.9999999999995155
13,2.4,0.10526304553491962,0.0851660381473188,0.015540991845632351,0.017988371867067705,0.021023684600350808,0.0036469608936007102,1362.9895286887995,1483.2634880559215,10.81,0.9999999999994735
14,2.6,0.10945612414928066,0.0912670028961613,0.013742657303381407,0.01451035434177413,0.020899694079266912,0.003733567323887644,1349.0659460738339,1444.2179698519396,10.77,0.9999999999995112
