,C/O ratio,CH4 in,CH4 out,CO out,H2 out,H2O out,CO2 out,Exit temp,Max temp,Dist to max temp,O2 conv
0,0.6000000000000001,0.04220610931192466,3.251259197134778e-05,0.03789697617516052,0.059814567892263144,0.02429939534085452,0.004072626867267818,1826.8524407943773,1957.5016419391998,12.81,0.9999999937564557
1,0.7000000000000002,0.04764223879568619,0.0009840666305483833,0.042339356991814514,0.07436213198201502,0.018327375653016488,0.003696734929632433,1588.497709776651,1910.0468403309512,12.23,0.9999999999828784
2,0.8,0.05273657570711542,0.006003213707442126,0.04242559119840752,0.07673937610949934,0.016107845321587204,0.0036935531953740937,1491.2617826964463,1874.750570808722,11.850000000000001,0.9999999999989055
3,0.8999999999999999,0.05752037248751414,0.012224305488619436,0.04097121571484014,0.0746777823243081,0.015366919578891861,0.0037865788393002197,1446.9185046055989,1844.3728185978266,11.580000000000002,0.9999999999996847
4,1.0,0.06202118410625546,0.018524391692600367,0.0391397541672659,0.07145287683110269,0.01507301028005119,0.0039040749313994584,1419.718452255072,1816.9601912257294,11.39,0.9999999999998467
5,1.1,0.0662633991614029,0.024630685937734507,0.03722867301889624,0.06791555191289259,0.014953112689063746,0.004028698490470591,1400.0546514600205,1790.6264625076224,11.240000000000002,0.9999999999999059
6,1.1999999999999995,0.07026868199272561,0.030465718826916545,0.03533704895586106,0.06435662405118335,0.014909807344956142,0.0041550605727694815,1384.409677948742,1764.9311756254474,11.13,0.9999999999999348
7,1.2999999999999998,0.0740563427297203,0.03600568375849585,0.03351060090199627,0.060909924363163066,0.014895514153162833,0.004280036167006357,1371.0411455132705,1739.1717822408273,11.040000000000001,0.9999999999999518
8,1.3999999999999995,0.07764364861664726,0.041252303122298405,0.031768330938042884,0.0576325685313802,0.01488696798188669,0.004402128850340948,1359.0651656034536,1713.1551784872843,10.97,0.9999999999999629
9,1.6000000000000003,0.08427758988601221,0.05088617162254684,0.02860092627804919,0.0517558874737639,0.014816109758477138,0.0046282134631666656,1336.7300967263486,1660.0673188559492,10.870000000000001,0.9999999999999779
10,1.7999999999999998,0.09027684884714632,0.0594770994278067,0.025859705944603854,0.04679455201906267,0.01464526422307617,0.004824389483736445,1315.1120377577085,1606.9458797651625,10.790000000000001,0.9999999999999871
11,2.0,0.09572834938139431,0.06712405141249381,0.02354883858090723,0.04274740276705495,0.014354043775169273,0.004980630707718459,1292.9883491959517,1556.3719915039821,10.730000000000002,0.999999999999993
12,2.2000000000000006,0.10070383531597826,0.07397347993829842,0.02157892698245167,0.03939060163904839,0.013997799705370009,0.005103051633272483,1271.3309687284677,1510.1066822583766,10.68,0.9999999999999963
13,2.4,0.10526304553491962,0.08017516244221859,0.019866210844582014,0.036534869824702734,0.013602290140545772,0.005195546663430226,1250.3761073680307,1468.1355096467648,10.64,0.9999999999999981
14,2.6,0.10945612414928066,0.08580753660561569,0.018367905173367192,0.034068733211842984,0.013204159838784462,0.00526479705840994,1230.7735096114172,1430.6077415150903,10.610000000000001,0.999999999999999
