,C/O ratio,CH4 in,CH4 out,CO out,H2 out,H2O out,CO2 out,Exit temp,Max temp,Dist to max temp,O2 conv
0,0.6000000000000001,0.04220610931192466,0.00010382838224278924,0.040017001017216,0.05659318059058755,0.02711764504207133,0.0016271648999951927,1824.957327136477,1952.2834496847706,17.96,0.9999999917267881
1,0.7000000000000002,0.04764223879568619,0.0021647413537192587,0.04329739783807122,0.06851768076439167,0.021769509922249686,0.0015320866087126703,1617.7098799445234,1905.6869522608279,16.21,0.9999999999432523
2,0.8,0.05273657570711542,0.007539962104680667,0.04306301663826978,0.06981363420634214,0.019909832866547017,0.0014737476540979749,1527.3311345452478,1870.309258467606,15.05,0.9999999999946475
3,0.9000000000000001,0.05752037248751414,0.01372157367966971,0.04172506819602602,0.06757161956640803,0.019364808874900757,0.0014379496203132298,1482.7208363959812,1840.6924362288423,14.230000000000002,0.9999999999982709
4,1.0,0.06202118410625546,0.020106561125172617,0.039918873287555764,0.06394719561032874,0.019275468176381087,0.0014131453949247877,1454.9734227349961,1812.8185558055384,13.610000000000001,0.9999999999990825
5,1.1,0.0662633991614029,0.026283686265454093,0.03803055240293263,0.05995687464454314,0.019415267210020903,0.0013964975853183416,1436.353398063738,1786.301637612494,13.15,0.9999999999993582
6,1.1999999999999995,0.07026868199272561,0.03218133726194688,0.03615209318545745,0.05589591451419838,0.0196731739419425,0.0013853656764289675,1422.942429828571,1760.411880715373,12.8,0.999999999999472
7,1.3000000000000003,0.07405634272972031,0.03790724577832482,0.034224863681433015,0.05170244848379033,0.019987065986557605,0.001377261221627794,1412.3977976283113,1733.651094988227,12.530000000000001,0.9999999999995209
8,1.3999999999999995,0.07764364861664726,0.04331348708697953,0.03239278514047236,0.047696363074055545,0.02032133508758228,0.0013723974470174246,1403.7890083362513,1706.6942310329218,12.290000000000001,0.9999999999995391
9,1.6000000000000005,0.08427758988601222,0.05335222398441681,0.028932478602911597,0.04009528507887651,0.02101308367233753,0.0013655090218446081,1390.4034222495482,1650.7096104589093,11.950000000000001,0.9999999999995149
10,1.7999999999999998,0.09027684884714632,0.06217842468389243,0.026026366928785686,0.03368710277111208,0.021590288065547452,0.0013564919579580842,1378.6044075512493,1596.6856476595965,11.71,0.9999999999994825
11,2.0,0.09572834938139431,0.07051225554112676,0.023275292396720156,0.027717846141054513,0.02193003251021985,0.0013290791939396585,1364.1959352132506,1540.8098094546942,11.520000000000001,0.9999999999995013
12,2.2,0.10070383531597825,0.07772563135555235,0.021215869925972464,0.023337305912932822,0.021981336742451122,0.0012884201505524238,1346.7333073220163,1492.2887460176084,11.370000000000001,0.9999999999996076
13,2.4,0.10526304553491962,0.08411884756690358,0.019592908500049227,0.020064209400769962,0.02178711962410326,0.001239682674894442,1326.1665876387835,1448.8257084410122,11.250000000000002,0.9999999999997429
14,2.6000000000000005,0.10945612414928066,0.08963671683177679,0.01837572858891788,0.01776214417567413,0.02148392418833621,0.0011938827688660221,1305.366056658454,1412.1569418254946,11.15,0.9999999999998446
