,C/O ratio,CH4 in,CH4 out,CO out,H2 out,H2O out,CO2 out,Exit temp,Max temp,Dist to max temp,O2 conv
0,0.6000000000000001,0.04220610931192466,0.003852550959963969,0.013101994968091621,0.031432125107781636,0.027688148414720642,0.007705903497543981,1730.8620468694132,1951.2677057561523,12.520000000000001,0.7990016644422765
1,0.7000000000000002,0.04764223879568619,0.007241876230602298,0.011880113755527272,0.032556399956806675,0.027554866132359038,0.007887943589917033,1663.9205562989937,1913.3118972916113,12.050000000000002,0.8100351564144583
2,0.7999999999999998,0.05273657570711541,0.011613189101124454,0.010044648490746282,0.03152467807021374,0.02759493558739432,0.008065388263576204,1610.8789472781891,1882.5420854831489,11.700000000000001,0.810688269459436
3,0.8999999999999999,0.057520372487514126,0.01622258692984827,0.009028011974459378,0.03092920606796974,0.027542306605475797,0.008216066193459241,1574.879401071699,1854.6446834455041,11.46,0.8293562794792056
4,0.9999999999999999,0.06202118410625546,0.02022719787717229,0.008752952124070248,0.031140804182541015,0.027624473371032215,0.008369025680275616,1553.2656358708603,1833.8692534081504,11.290000000000001,0.851515666486135
5,1.1000000000000005,0.06626339916140292,0.0249006722173445,0.00787676410256311,0.03000188644473764,0.027580882465237624,0.00849993484422208,1531.3000516284399,1811.043810430492,11.160000000000002,0.8672496243190895
6,1.1999999999999995,0.07026868199272561,0.028833436997707063,0.00796407428319682,0.030306769519599153,0.027530919646577688,0.008619519400600597,1518.3575339990152,1791.6165776252767,11.06,0.8966501076507175
7,1.2999999999999998,0.0740563427297203,0.03345623955896364,0.007334466194248796,0.029130126466738418,0.02737423452619385,0.008719031395947268,1503.3003962313487,1769.6970764480445,10.98,0.9154567246679749
8,1.3999999999999995,0.07764364861664726,0.03770662875140149,0.0067779677000552666,0.02801570828029642,0.027283979490481603,0.008818498739980765,1491.49179688666,1750.9071444517645,10.920000000000002,0.9282637478853917
9,1.6000000000000005,0.08427758988601222,0.04659671736471302,0.005883732411996965,0.025544114183708975,0.02674248875558541,0.008951655654584785,1470.9900417881288,1707.9734832878032,10.830000000000002,0.9593702805374759
10,1.7999999999999998,0.09027684884714632,0.05534234293746276,0.005025572779054865,0.022662456309407917,0.026035493862106983,0.009030883673195593,1454.295349451414,1664.6533327444877,10.780000000000001,0.9795241633398784
11,2.0,0.09572834938139431,0.06410924834145845,0.004163349230808144,0.019310408417964914,0.025148184843510148,0.009043624423179525,1439.6194349823024,1619.7720690812273,10.740000000000002,0.9903648064147412
12,2.2,0.10070383531597825,0.07267336070244552,0.00352866769986996,0.015979923607454573,0.024117452763527548,0.008988523619445144,1427.019058931243,1574.4778991916467,10.72,0.9967904790797997
13,2.4,0.10526304553491962,0.08057775423705807,0.003047885810096221,0.012871527398477575,0.023150926457355912,0.008894251993162003,1416.438825077373,1533.368238196743,10.71,0.9990945197094818
14,2.6000000000000005,0.10945612414928066,0.09144191616350056,0.007707869466965997,0.016897904212983636,0.017092068450014465,0.008658689859214239,1377.658514198147,1490.1386517365204,10.690000000000001,0.999999999999995
