,C/O ratio,CH4 in,CH4 out,CO out,H2 out,H2O out,CO2 out,Exit temp,Max temp,Dist to max temp,O2 conv
0,0.6000000000000001,0.04220610931192466,3.077466943647707e-05,0.037919691520966387,0.05983133153207141,0.024296995695068976,0.004062471468333668,1826.6465885893792,1955.0658014058256,12.910000000000002,0.9999999937809831
1,0.7000000000000002,0.04764223879568619,0.0009431484078006977,0.04250259829121478,0.07453809467494657,0.018291874606805987,0.0036328680495509853,1586.187573359087,1905.9173732367851,12.310000000000002,0.9999999999839386
2,0.8,0.05273657570711542,0.005801980535746411,0.04282159994967325,0.07736892187068577,0.015955444178056007,0.0035735535027964973,1484.1120295428134,1868.8705407336397,11.920000000000002,0.9999999999991341
3,0.8999999999999999,0.05752037248751414,0.011840277642511427,0.041603160745405716,0.0758492927743715,0.01505348971392225,0.0036273388935153346,1434.484033356002,1837.2222587724848,11.64,0.9999999999997976
4,1.0,0.06202118410625546,0.01794152246523653,0.04001667985783519,0.07321035115530135,0.014584111314668158,0.003710104902406163,1402.0218280837655,1807.8601276768482,11.440000000000001,0.9999999999999214
5,1.1,0.0662633991614029,0.023844757540277775,0.03835118897447136,0.0702684022436759,0.014285974852302543,0.0038010636122883207,1377.2711868769795,1779.7425467270389,11.28,0.9999999999999615
6,1.1999999999999995,0.07026868199272561,0.02944680919854599,0.03673180574536351,0.06736707815554845,0.01405436362967096,0.003891435597327949,1356.4083401706766,1752.2902754679808,11.170000000000002,0.9999999999999791
7,1.2999999999999998,0.0740563427297203,0.03477534285539007,0.03516234283396819,0.06455138560579103,0.013847414880383695,0.003978284872747606,1337.761948063137,1724.3377244467872,11.080000000000002,0.9999999999999879
8,1.3999999999999995,0.07764364861664726,0.03980094399413455,0.03368288882344175,0.06190763804812572,0.013655809052765143,0.004060493380927587,1320.8322948987548,1696.4670610655346,11.000000000000002,0.9999999999999928
9,1.6000000000000003,0.08427758988601221,0.04893535690179067,0.031069254744518885,0.05731322092236112,0.013265815358196037,0.004204796402288768,1290.0451957689231,1641.0456146165745,10.89,0.9999999999999972
10,1.7999999999999998,0.09027684884714632,0.05724116491168385,0.028690710221046405,0.05321795380056809,0.012820006247222106,0.004321540531367232,1261.1048130542877,1585.4896707572775,10.8,0.9999999999999989
11,2.0,0.09572834938139431,0.06464386628472064,0.026657833580624127,0.04977547911319555,0.012376379564637718,0.004414976037706071,1235.1613217643414,1534.9864189810248,10.730000000000002,0.9999999999999996
12,2.2000000000000006,0.10070383531597826,0.07134767375731775,0.024861802509461132,0.04676767610869558,0.011935828690803828,0.004488417743117196,1211.5668363943064,1489.5118302577907,10.68,0.9999999999999999
13,2.4,0.10526304553491962,0.07746802167942822,0.02324466512591194,0.04406494625948496,0.011520449703430309,0.004547242345719687,1190.4254274592986,1448.8433434831381,10.63,1.0
14,2.6,0.10945612414928066,0.08307583625825313,0.02178130679191546,0.04161496209805741,0.011137059096374512,0.00459449929995381,1171.5554648103466,1412.5962673423228,10.6,1.0
