,C/O ratio,CH4 in,CH4 out,CO out,H2 out,H2O out,CO2 out,Exit temp,Max temp,Dist to max temp,O2 conv
0,0.6000000000000001,0.04220610931192466,1.7678692233203765e-05,0.03802685737534005,0.06002303346442316,0.0242139490940695,0.004050491228726836,1825.3103557636232,1931.1225827586218,12.870000000000001,0.9999999939770197
1,0.7000000000000002,0.04764223879568619,0.0002747763436047849,0.04357541346991356,0.07707969718328489,0.017401995107117985,0.003542279503632546,1561.5843928165157,1868.8933361341421,12.290000000000001,0.9999999999924444
2,0.8,0.05273657570711542,0.0028549986439118094,0.0464597032151753,0.08662998876307954,0.012960784265378679,0.00325164021421174,1393.1662346524256,1820.003750706555,11.920000000000002,0.9999999999999678
3,0.8999999999999999,0.05752037248751414,0.00702966557237129,0.04733199514840643,0.09043871169748197,0.010448702135224197,0.00306613123763403,1293.564213830723,1775.609040688689,11.65,0.9999999999999993
4,1.0,0.06202118410625546,0.011750914837332906,0.047300384348099314,0.09162924759709816,0.00886753450487131,0.002926610743919608,1227.173666392311,1732.9863958738981,11.45,1.0
5,1.1,0.0662633991614029,0.016666980405199008,0.046754355988408255,0.09131471545859472,0.007853597054032154,0.0028220753050989663,1181.047817715016,1691.443927186552,11.31,1.0
6,1.1999999999999995,0.07026868199272561,0.021586238715175066,0.045936006484426674,0.09021188402762056,0.007144704422424505,0.0027384273640757364,1146.2093493328532,1650.9316635862408,11.200000000000001,1.0
7,1.2999999999999998,0.0740563427297203,0.026385994407651246,0.04498677482646349,0.08866560869801564,0.00665693529320561,0.002674050239764838,1119.7576146965775,1612.7825943742207,11.1,1.0
8,1.3999999999999995,0.07764364861664726,0.03109667654040949,0.04392087228420902,0.08677831597056937,0.006306313139155975,0.0026219377475744355,1098.626615344502,1576.5690329249396,11.02,1.0
9,1.6000000000000003,0.08427758988601221,0.0400371295671293,0.04169237500204602,0.08259346124899163,0.0058865703937470495,0.0025471904049346036,1067.6796723836287,1512.0751809595715,10.89,1.0
10,1.7999999999999998,0.09027684884714632,0.04829751738758036,0.03948111909975702,0.0782598259202544,0.005690899698249802,0.0024962772390106133,1046.2369225943237,1457.2538889208463,10.8,1.0
11,2.0,0.09572834938139431,0.055923299390697755,0.037349781081643725,0.07400692397703737,0.005604324507735745,0.0024545662145392328,1029.9166314430763,1410.1183697845138,10.730000000000002,1.0
12,2.2000000000000006,0.10070383531597826,0.06287737964494346,0.03539481250415386,0.07003463626822497,0.0055855615623824914,0.0024182204040050187,1017.2504225025099,1369.774824916899,10.68,1.0
13,2.4,0.10526304553491962,0.06938516519884924,0.033496452479081194,0.06615146680017965,0.005603378665783455,0.002380762300524951,1006.6163574521042,1333.415762726137,10.64,1.0
14,2.6,0.10945612414928066,0.07532013634225697,0.03178752498341519,0.06260967924164917,0.005643490451133223,0.002344006086289799,997.7926685347761,1301.9060901023197,10.610000000000001,1.0
