,C/O ratio,CH4 in,CH4 out,CO out,H2 out,H2O out,CO2 out,Exit temp,Max temp,Dist to max temp,O2 conv
0,0.6000000000000001,0.04220610931192466,3.7570413406338155e-05,0.037263425932665656,0.06034705243745948,0.023729340025694875,0.004674431242516891,1829.36378412723,1957.4564740684132,13.240000000000002,0.9999999938982085
1,0.7000000000000002,0.04764223879568619,0.0010715930024523964,0.04126692569332692,0.07491018840347474,0.01754585297454971,0.004623708117865396,1595.3495194045806,1912.2324688284957,12.58,0.999999999982173
2,0.8,0.05273657570711542,0.006238662696758676,0.04120321361806325,0.07677880920436254,0.015516576182905344,0.004600365885715783,1502.4738863528387,1879.0447453623513,12.15,0.9999999999986893
3,0.8999999999999999,0.05752037248751414,0.012608894288370314,0.03968231784444318,0.0741224660796382,0.015049972002113199,0.004589485989887107,1461.8569827581455,1850.9799531570202,11.840000000000002,0.999999999999554
4,1.0,0.06202118410625546,0.01907132387614713,0.037786031894746455,0.07024061974677442,0.015063097709640039,0.004585861159669223,1438.4834527063576,1825.458816268734,11.610000000000001,0.9999999999997379
5,1.1,0.0662633991614029,0.025360646903572606,0.03578804445871344,0.06597249428875974,0.015277688786778074,0.004586663418820303,1423.042208301756,1801.4146584653613,11.440000000000001,0.9999999999998002
6,1.1999999999999995,0.07026868199272561,0.03139799323241507,0.03378398876402094,0.06161222006200316,0.015593652524053264,0.004589572782923514,1412.0138267909165,1777.8414816857148,11.31,0.9999999999998235
7,1.3000000000000003,0.07405634272972031,0.03716194478061553,0.03181439538786105,0.05728498342771178,0.01596554593603339,0.004592989092539726,1403.7343904269435,1754.4681907283782,11.200000000000001,0.9999999999998285
8,1.3999999999999995,0.07764364861664726,0.04265313726438465,0.029898036780969646,0.05304859771750999,0.01636977248919662,0.0045956961854840194,1397.3059764502502,1730.8393890920236,11.120000000000001,0.9999999999998224
9,1.6000000000000003,0.08427758988601221,0.05285885986485844,0.026257891097445696,0.04494763605297505,0.017224110875090654,0.0045954073434645165,1388.0244172705325,1681.6298645662168,11.000000000000002,0.999999999999782
10,1.7999999999999998,0.09027684884714632,0.062106847140689606,0.022914978696886756,0.03745557694802298,0.018071701110125227,0.004583191884504743,1381.2770076936881,1630.340766276534,10.93,0.9999999999997037
11,2.0,0.09572834938139431,0.07048142289549313,0.01992253880608078,0.030709757565506604,0.018830702971377556,0.0045550744422910554,1374.9569373494292,1578.8770140243626,10.88,0.9999999999995876
12,2.2,0.10070383531597825,0.07804777119238608,0.017348416923117616,0.0248820064431473,0.01941008069883259,0.004507612032164863,1367.1494281636049,1530.0672614966131,10.830000000000002,0.9999999999994635
13,2.4,0.10526304553491962,0.08484386696233653,0.01526498078473029,0.020180479079273273,0.019713824150637424,0.004440107058507966,1355.9440783108053,1485.411809958617,10.790000000000001,0.9999999999994152
14,2.6000000000000005,0.10945612414928066,0.090911983856506,0.013647649059081092,0.016610183458446663,0.019736548972557433,0.004356979007235301,1340.8738082022014,1445.1370797247787,10.75,0.9999999999994847
