,C/O ratio,CH4 in,CH4 out,CO out,H2 out,H2O out,CO2 out,Exit temp,Max temp,Dist to max temp,O2 conv
0,0.6000000000000001,0.04220610931192466,0.04220484864384654,1.1516424396245507e-06,3.492886829779602e-11,2.5178028051673756e-06,1.0669335865162332e-07,700.1076080439634,700.1076080440058,20.0,5.519868575391687e-05
1,0.7000000000000002,0.04764223879568619,0.04764051204450862,1.5581924756849704e-06,6.802308123199008e-11,3.4488204591011176e-06,1.65482788801934e-07,700.144083723873,700.144083723874,65.82000000000001,7.843072297812845e-05
2,0.8,0.05273657570711542,0.052734305554875356,2.0227814870711205e-06,1.2193640936272217e-10,4.534335020089228e-06,2.4347240678065684e-07,700.1856548953009,700.1856548953438,22.070000000000004,0.00010685729860827917
3,0.8999999999999999,0.05752037248751414,0.05751747981801319,2.5440553765844348e-06,2.0514993844881718e-10,5.777943444513258e-06,3.438205230450342e-07,700.2323780619486,700.2323780619529,46.2,0.0001409713488359209
4,1.0,0.06202118410625546,0.062017587909453886,3.1206059380174162e-06,3.2828503200098743e-10,7.183430599531196e-06,4.698343889349808e-07,700.2843419665699,700.2843419665878,30.080000000000002,0.00018128909792940423
5,1.1,0.0662633991614029,0.06625901643920225,3.7509736479854042e-06,5.044290471294041e-10,8.754766328421606e-06,6.249661286626608e-07,700.3416613506624,700.3416613506998,52.06,0.00022835095013871515
6,1.1999999999999995,0.07026868199272561,0.07026342766535824,4.433651384105299e-06,7.494954587396382e-10,1.0496104015640772e-05,8.128085070992236e-07,700.4044724356906,700.4044724356964,66.30000000000001,0.000282722393732298
7,1.2999999999999998,0.0740563427297203,0.07405012954200384,5.167088998800328e-06,1.0826213857095878e-09,1.2411780581453982e-05,1.0370905714541303e-06,700.4729296038154,700.4729296038215,62.11000000000001,0.00034499492305571275
8,1.3999999999999995,0.07764364861664726,0.0776363870433681,5.9496986841912175e-06,1.5266057574295078e-09,1.4506317874017056e-05,1.3016732176902415e-06,700.5472029340839,700.5472029341839,20.150000000000002,0.00041578698540333225
9,1.6000000000000003,0.08427758988601221,0.08426795340241555,7.655932009948026e-06,2.859596642095181e-09,1.9251004932899967e-05,1.967816488330407e-06,700.7139463024106,700.7139463024151,69.26,0.0005855441874370605
10,1.7999999999999998,0.09027684884714632,0.09026444965638959,9.539143940517164e-06,5.023659799108677e-09,2.4770181583544694e-05,2.844595982931296e-06,700.9063179613205,700.9063179613266,56.81000000000001,0.0007975190450522422
11,2.0,0.09572834938139431,0.09571277785667245,1.1585980157242924e-05,8.388835647477593e-09,3.1107158229684847e-05,3.96720966223096e-06,701.126106800939,701.1261068009703,50.910000000000004,0.0010577360596898775
12,2.2000000000000006,0.10070383531597826,0.10068465813283119,1.378321622000192e-05,1.3443670665005051e-08,3.830885719015627e-05,5.372589991480579e-06,701.3752615462623,701.3752615462786,20.07,0.0013727601190668402
13,2.4,0.10526304553491962,0.10523980356948583,1.611805890292455e-05,2.0823717286003716e-08,4.6426253176518635e-05,7.0993372386489125e-06,701.6558883085349,701.6558883086149,20.360000000000003,0.0017497447567357556
14,2.6,0.10945612414928066,0.10942833006827826,1.8578465029975875e-05,3.13459411095283e-08,5.551495604329376e-05,9.187709319742679e-06,701.9702574559326,701.9702574559948,20.07,0.002196490374995098
