,C/O ratio,CH4 in,CH4 out,CO out,H2 out,H2O out,CO2 out,Exit temp,Max temp,Dist to max temp,O2 conv
0,0.6000000000000001,0.04220610931192466,0.00011572867631038572,0.03773368881504658,0.058031428571113666,0.02537661433937279,0.003615521235442305,1833.5222397489083,1955.2292122209672,14.050000000000002,0.9999999921018905
1,0.7000000000000002,0.04764223879568619,0.0012361460386013502,0.04223253210447167,0.07308960460747449,0.018971532771898142,0.003428051487575346,1596.7091878096553,1909.3074603617501,13.23,0.9999999999770759
2,0.8,0.05273657570711542,0.006502005999226888,0.04219021733205915,0.0747556090608905,0.01701844959550573,0.0033559107645651245,1505.2570677893368,1875.1659494039643,12.68,0.9999999999981307
3,0.8999999999999999,0.05752037248751414,0.01288075096154067,0.040711318399773246,0.07208110581759557,0.016572086288334592,0.0033139062318283874,1464.3467396986491,1845.9340450794648,12.280000000000001,0.9999999999993507
4,1.0,0.06202118410625546,0.01933253958946602,0.0388533180926109,0.06821619247738679,0.01659355739636293,0.0032869612720691924,1440.446974463666,1819.3177046192397,11.99,0.9999999999996191
5,1.1,0.0662633991614029,0.025604857998530274,0.0368884644009856,0.06397590421235826,0.01681173220850146,0.00326940094478261,1424.462751487357,1794.0062667722511,11.770000000000001,0.9999999999997122
6,1.1999999999999995,0.07026868199272561,0.03162198023412309,0.03491416362972808,0.05965238828548249,0.017126357264761076,0.0032580972455454474,1412.8918829764461,1769.189887120439,11.600000000000001,0.9999999999997491
7,1.2999999999999998,0.0740563427297203,0.03736293465979357,0.032973204799505856,0.055373745857438185,0.017490520508039314,0.0032510629884290316,1404.0468668626295,1744.3209971303058,11.47,0.9999999999997606
8,1.3999999999999995,0.07764364861664726,0.042829364878010645,0.031085213134601934,0.05119784788470858,0.01788023594713387,0.003246842943488998,1397.029723892016,1718.797638186168,11.36,0.9999999999997572
9,1.6000000000000005,0.08427758988601222,0.052969469710802984,0.02752231286636364,0.04330436970389135,0.018666113406705348,0.003242183219048208,1386.122064965783,1665.8941758786636,11.21,0.9999999999997219
10,1.7999999999999998,0.09027684884714632,0.06212276283952258,0.024310713351312362,0.03618225533560812,0.019376682143560316,0.003232847849306317,1376.8100569271594,1611.5180829519927,11.1,0.9999999999996657
11,2.0,0.09572834938139431,0.070358739893806,0.02154110231733906,0.03003092817076149,0.019914665539437527,0.00320387811638063,1366.4938118905716,1558.650705401623,11.010000000000002,0.9999999999996227
12,2.2000000000000006,0.10070383531597826,0.07772439648794795,0.01928576033968095,0.02503964697822734,0.02019502499481511,0.003146604065302006,1353.0671835745231,1509.7875140978174,10.94,0.99999999999964
13,2.4,0.10526304553491962,0.08427764090640463,0.017515050241745114,0.021201361807639162,0.02021181721287701,0.0030662311710283963,1336.0401671769669,1465.6996203193305,10.88,0.9999999999997181
14,2.6,0.10945612414928066,0.0900992297102392,0.016122620253033793,0.018317128465387352,0.020026463863019754,0.0029746486510891616,1316.39239376387,1426.1888440112034,10.820000000000002,0.9999999999998118
