,C/O ratio,CH4 in,CH4 out,CO out,H2 out,H2O out,CO2 out,Exit temp,Max temp,Dist to max temp,O2 conv
0,0.6000000000000001,0.04220610931192466,0.04164847825901591,0.0002161977549065709,0.0006241129797239716,0.0004911491192980578,0.0003414332934774318,736.3036218460051,736.3036218460546,20.07,0.019763207080471336
1,0.7000000000000002,0.04764223879568619,0.04694885439573772,0.0002826325756972518,0.000858367450998077,0.0005284013403474358,0.00041075181854850176,740.119350522734,740.1193505227548,38.330000000000005,0.02398662024463089
2,0.8,0.05273657570711542,0.05192536423415678,0.00034455055013679213,0.0010811784584776778,0.000541244477341443,0.00046666091608221457,742.2838627363435,742.2838627364384,20.07,0.027595524952284196
3,0.8999999999999999,0.05752037248751414,0.05661469524780559,0.0003979449912161207,0.0012765298260556447,0.0005348246420009192,0.0005077322409252703,743.0410120439957,743.0410120440287,21.27,0.030483298899283917
4,1.0,0.06202118410625546,0.06104523660326268,0.00044116549319883077,0.0014369744776235355,0.0005149205160387133,0.0005347820016054026,742.7207739663663,742.7207739666663,20.09,0.03266061501394381
5,1.1,0.0662633991614029,0.06523905420114245,0.00047444070263479433,0.0015619351605651104,0.00048675474694400165,0.0005499042489614904,741.6536232622531,741.6536232622576,67.38000000000001,0.03421352323878235
6,1.1999999999999995,0.07026868199272561,0.06921398356043806,0.0004990746862307887,0.0016549717846204176,0.0004544250664693285,0.0005556237370684646,740.1204703888378,740.1204703888392,69.97,0.035260326608877006
7,1.3000000000000003,0.07405634272972031,0.07298524236750593,0.0005167500940900351,0.0017213835877978032,0.00042081712282825715,0.0005543502589273272,738.3351297638831,738.3351297640509,20.060000000000002,0.03592059724685581
8,1.3999999999999995,0.07764364861664726,0.07656643141754013,0.0005290964592257332,0.0017666536370705226,0.0003877807471122302,0.0005481207306376461,736.4474508506762,736.447450850678,63.1,0.036298733904557526
9,1.6000000000000003,0.08427758988601221,0.08320776888404378,0.0005430320241528739,0.0018124494045486685,0.00032719258520620275,0.0005267889683689381,732.7192467054061,732.7192467054189,56.93,0.03652316213831051
10,1.7999999999999998,0.09027684884714632,0.08922824406799013,0.0005485699641990789,0.0018212124068144897,0.000275997137296894,0.0005000348054972317,729.3319807223143,729.3319807223154,69.87,0.03638082333468281
11,2.0,0.09572834938139431,0.09470629993372179,0.000549917478740089,0.001810172173969327,0.00023392670722940419,0.000472131959498743,726.3860155259392,726.3860155259439,20.09,0.03610441670856677
12,2.2,0.10070383531597825,0.09970952769221615,0.000549229975080633,0.0017889863879257373,0.00019962884553630003,0.000445077639302422,723.8650855074894,723.8650855074923,65.7,0.03580629292054944
13,2.4,0.10526304553491962,0.104295746086341,0.000547586558539716,0.0017629638809153244,0.00017163500227327443,0.00041971288072564664,721.7159718901064,721.715971890268,20.100000000000005,0.035537196952452346
14,2.6000000000000005,0.10945612414928066,0.10851428720472057,0.0005455228081691402,0.0017350090993942197,0.0001486647758554298,0.0003963141271472047,719.8799781162004,719.8799781162079,44.15,0.03531754132099545
