,C/O ratio,CH4 in,CH4 out,CO out,H2 out,H2O out,CO2 out,Exit temp,Max temp,Dist to max temp,O2 conv
0,0.6000000000000001,0.04220610931192466,3.202783191569457e-05,0.03791087680775576,0.05980497758257056,0.024311717027914483,0.004061690127853611,1826.9205853021474,1956.345465710475,12.560000000000002,0.9999999937402279
1,0.7000000000000002,0.04764223879568619,0.0009065457638792981,0.04248982107951555,0.07452532787811769,0.018320563084007657,0.0036249130801752245,1585.9491866372823,1908.4133885362087,12.020000000000001,0.9999999999839985
2,0.8,0.05273657570711542,0.005771813880599557,0.04281542086513193,0.07732604759578832,0.01600144075224083,0.003551790709542557,1483.9111632413094,1872.4661835822783,11.670000000000002,0.9999999999991344
3,0.8999999999999999,0.05752037248751414,0.011854909072598998,0.041561884392896715,0.07566905744542772,0.01515005265818619,0.0035996936346571226,1435.5656569050516,1841.8349743922165,11.430000000000001,0.9999999999997878
4,1.0,0.06202118410625546,0.01801396213439026,0.039927010061813505,0.07286428316040618,0.01473636045262791,0.00367880352440949,1404.5289323215804,1813.4577542235377,11.250000000000002,0.9999999999999126
5,1.1,0.0662633991614029,0.023977659875411558,0.03820978671982341,0.06975082948401015,0.014494997089475641,0.0037670983289904976,1381.1934610655933,1786.6835730577202,11.120000000000001,0.9999999999999546
6,1.1999999999999995,0.07026868199272561,0.02966215918700689,0.03651854631093015,0.06663348610379323,0.01432582361559379,0.003856359872201267,1361.8615074747452,1760.2806783510764,11.02,0.9999999999999736
7,1.3000000000000003,0.07405634272972031,0.03505781163604027,0.034882457770307594,0.0636043209472878,0.014195686669939932,0.003943881094830054,1345.1111816645146,1733.8312498018645,10.94,0.9999999999999835
8,1.3999999999999995,0.07764364861664726,0.040158512768014375,0.03333113578077418,0.06074314322485438,0.014074072459423288,0.004026992037022604,1329.8350075050548,1707.1215091704041,10.88,0.9999999999999892
9,1.6000000000000003,0.08427758988601221,0.049539197604773,0.030491657233097363,0.05555755990089463,0.01382697393744204,0.0041772670344407325,1302.2344683099666,1653.091122035441,10.780000000000001,0.9999999999999951
10,1.7999999999999998,0.09027684884714632,0.05796092748130398,0.02796980200951369,0.05100478585706912,0.013570889636446945,0.004306544296160726,1277.773051036263,1599.9824912789406,10.71,0.9999999999999977
11,2.0,0.09572834938139431,0.06557021154254511,0.025717519701489763,0.046969252096145955,0.01331258377311279,0.0044170298521749975,1255.9951712550178,1550.2080732824527,10.650000000000002,0.9999999999999989
12,2.2,0.10070383531597825,0.07249302346818137,0.023684080758748675,0.04333436960192513,0.013065856983745117,0.004512263515217289,1236.724226314189,1504.9845374534016,10.610000000000001,0.9999999999999994
13,2.4,0.10526304553491962,0.07882570898534219,0.0218333787257227,0.040024612232605526,0.012836513341022112,0.004594853414310873,1219.6658910601093,1464.351194459943,10.570000000000002,0.9999999999999997
14,2.6000000000000005,0.10945612414928066,0.0846424649963076,0.02014132359420349,0.03699422405481147,0.012624297957392715,0.00466644273506075,1204.4688558306375,1427.7990391104072,10.540000000000001,0.9999999999999999
