,C/O ratio,CH4 in,CH4 out,CO out,H2 out,H2O out,CO2 out,Exit temp,Max temp,Dist to max temp,O2 conv
0,0.6000000000000001,0.04220610931192466,3.8406628155441993e-05,0.03785944681340903,0.05971715447477398,0.02434776901109616,0.004067195778270071,1827.4161023883996,1962.7859145310495,12.530000000000001,0.9999999936632916
1,0.7000000000000002,0.04764223879568619,0.0009884950787022084,0.042207495831191495,0.07396081650888964,0.018547915495720983,0.0036523925507475213,1591.0373727267722,1918.6335902163166,12.0,0.9999999999812785
2,0.8,0.05273657570711542,0.006102424860738525,0.04220609764184822,0.07595997513896946,0.016487912417494952,0.003613219487989132,1496.7349145501082,1886.4456274857705,11.65,0.9999999999986486
3,0.8999999999999999,0.05752037248751414,0.012451811903093498,0.0406221926363328,0.07348111742996098,0.015896051649380905,0.0036964384416356237,1455.875752577935,1859.25793404593,11.4,0.9999999999995495
4,1.0,0.06202118410625546,0.018894038483378756,0.038642196004984364,0.06981593111754819,0.01575039826897775,0.003814130846312749,1432.3094877701424,1835.0001396893072,11.23,0.9999999999997434
5,1.1,0.0662633991614029,0.025160792336243097,0.03655861256221651,0.06579117115155209,0.015789708009381443,0.003945334571832648,1416.5835479700922,1812.4479197543455,11.090000000000002,0.9999999999998123
6,1.1999999999999995,0.07026868199272561,0.031164205215282875,0.03448247835038965,0.061722609959343935,0.0159103200611624,0.00408201284009257,1404.9352136468642,1790.7020074705279,10.990000000000002,0.9999999999998433
7,1.2999999999999998,0.0740563427297203,0.03688813214831701,0.03244551923359128,0.05770635503485083,0.016081069094916658,0.004222127432292065,1396.0353178001708,1769.2376399963857,10.910000000000002,0.9999999999998569
8,1.3999999999999995,0.07764364861664726,0.042333079350254293,0.03047670679070863,0.05383116158203065,0.016258149552397436,0.0043622212560190145,1388.451529923707,1747.6781014953033,10.85,0.999999999999864
9,1.6000000000000003,0.08427758988601221,0.05241406020692976,0.026766599155457982,0.046563133041670125,0.0166219730660945,0.004642196841065221,1376.3723600446015,1703.5942472640832,10.76,0.9999999999998644
10,1.7999999999999998,0.09027684884714632,0.06150243544421904,0.023401919261706844,0.0400546935081888,0.01692248826354634,0.004914480027215273,1365.9217387032334,1657.4576380409624,10.700000000000001,0.9999999999998597
11,2.0,0.09572834938139431,0.06968457445188293,0.02043135362795736,0.034415671887007684,0.017095995427024516,0.005168257786836068,1355.129586714726,1610.2577382831555,10.660000000000002,0.9999999999998606
12,2.2000000000000006,0.10070383531597826,0.07702465981017645,0.017901588787332792,0.029739829036137446,0.017095094046810522,0.0053887288893416105,1342.4329903904636,1564.0035940397377,10.63,0.9999999999998761
13,2.4,0.10526304553491962,0.08360381659765641,0.015787448890650667,0.025961554678604695,0.016934961338970714,0.0055685618373479935,1327.6522448207122,1520.5050062612263,10.6,0.9999999999999027
14,2.6,0.10945612414928066,0.08950141323049822,0.014035557264522927,0.022954215725991402,0.016650836728877516,0.005706017323617913,1311.1509554036193,1480.547190258361,10.570000000000002,0.9999999999999314
