,C/O ratio,CH4 in,CH4 out,CO out,H2 out,H2O out,CO2 out,Exit temp,Max temp,Dist to max temp,O2 conv
0,0.6000000000000001,0.04220610931192466,8.418392459129692e-05,0.038640122586359904,0.057881374368749273,0.025801027309397852,0.002950141837544892,1828.1143587675022,1948.4495957105216,13.410000000000002,0.9999999926800452
1,0.7000000000000002,0.04764223879568619,0.0009624168805921078,0.039715925238787086,0.06690003172274345,0.02244010090835564,0.0029520137303502532,1635.0727640832556,1905.7408873951858,12.700000000000001,0.9999999999248403
2,0.8,0.05273657570711542,0.005057598590257517,0.038380822991065745,0.06746426602714034,0.021571221043694622,0.0029841624300327146,1545.2982759299482,1874.0029428399212,12.23,0.9999999999927545
3,0.9000000000000001,0.05752037248751414,0.010479712586597235,0.03605568786989947,0.06432217319838163,0.021791831099145422,0.0030317501308565636,1501.925416804825,1845.3905554682499,11.89,0.999999999997415
4,1.0,0.06202118410625546,0.01627198336404918,0.034176924683059016,0.061050540296927504,0.021892648760206634,0.0030853812553638263,1474.9397130252974,1821.6682213856816,11.65,0.9999999999985973
5,1.1000000000000005,0.06626339916140292,0.022503294091890388,0.0319168415546904,0.056740968829558244,0.022041554524161584,0.003140128273598201,1454.2257142403946,1796.143168565483,11.46,0.9999999999990707
6,1.1999999999999995,0.07026868199272561,0.028456153456100603,0.030029668720750198,0.05285952817717514,0.022131737353383432,0.0031974503799800753,1439.394583985792,1772.7838985166625,11.32,0.9999999999992889
7,1.3000000000000003,0.07405634272972031,0.034133724203492415,0.028139740573613667,0.04894096704134842,0.022313631861259748,0.003256568576643405,1427.9975095691425,1749.4028804660427,11.22,0.9999999999993922
8,1.3999999999999995,0.07764364861664726,0.03950570379564261,0.026434893263731475,0.045302460573366274,0.02248176694240821,0.0033171119204308264,1419.1584179379438,1726.6530845382777,11.13,0.9999999999994434
9,1.6000000000000005,0.08427758988601222,0.049827660498109334,0.02322303093808557,0.03818597954064957,0.022747600323851112,0.0034320346833585274,1406.2639084279979,1679.1050538275833,11.000000000000002,0.9999999999994542
10,1.7999999999999998,0.09027684884714632,0.059545198185352,0.02039117006090706,0.03151562617114507,0.022899604710986756,0.003537717281591973,1398.601117972133,1629.6432785277723,10.910000000000002,0.9999999999993514
11,2.0,0.09572834938139431,0.06909366718322449,0.01811274258164799,0.025485343426237622,0.022609812428254994,0.00363094807957291,1392.7187934837564,1578.2538819935248,10.860000000000001,0.9999999999991819
12,2.2,0.10070383531597825,0.07804311100149425,0.017898495026783107,0.023371733215070065,0.02060484151514729,0.0037335647214794725,1372.9072068728387,1531.657392821926,10.820000000000002,0.9999999999996199
13,2.4,0.10526304553491962,0.08513614208310631,0.015422152252320971,0.018300294899126116,0.020799203480665447,0.0038186815852200924,1362.5507570962673,1484.975454602979,10.790000000000001,0.9999999999995456
14,2.6,0.10945612414928066,0.09126485104827056,0.01360088778810785,0.01471716474427975,0.020716618858329,0.0038901732722106002,1348.9897779318358,1445.5860198611538,10.75,0.9999999999995596
