,C/O ratio,CH4 in,CH4 out,CO out,H2 out,H2O out,CO2 out,Exit temp,Max temp,Dist to max temp,O2 conv
0,0.6000000000000001,0.04220610931192466,7.026214510641863e-06,0.03811265315852854,0.060178861479120785,0.024146165813702884,0.004042262124599416,1824.2678638359655,1882.0129437058902,14.71,0.9999999941285074
1,0.7000000000000002,0.04764223879568619,1.0255037454815634e-05,0.044088527962434884,0.07825919239309681,0.01696300238283216,0.0035052956244250428,1550.4532893547064,1789.5463853014908,13.91,0.9999999999946821
2,0.8,0.05273657570711542,0.0004179031992804099,0.04926540346428501,0.09404965608582853,0.010574893540324733,0.0030404957438641736,1319.68702943207,1714.5637956771795,13.39,0.9999999999999983
3,0.8999999999999999,0.05752037248751414,0.002530605019226903,0.0524952263718582,0.10353544666992907,0.006438007650939381,0.0024907767962732536,1163.5353164874011,1647.48482754322,13.040000000000001,1.0
4,1.0,0.06202118410625546,0.006703090811699047,0.053295732077430054,0.10593951985477122,0.004691224170442705,0.002019650768903589,1084.615370396369,1587.6622350785215,12.780000000000001,1.0
5,1.1,0.0662633991614029,0.011882341882285255,0.052650511029291636,0.10462612089831595,0.0041335852897476455,0.001728791169657839,1047.78220920228,1534.8998250134348,12.560000000000002,1.0
6,1.1999999999999995,0.07026868199272561,0.017244834672858273,0.05148389526132792,0.10204359588461466,0.003998619875597329,0.0015409496690879456,1027.5276971344847,1488.6562498394615,12.42,1.0
7,1.2999999999999998,0.0740563427297203,0.022516497596384386,0.0501356784555492,0.09904074348201322,0.004032689761824861,0.0014038655251604518,1014.4784917513408,1447.7227303364036,12.280000000000001,1.0
8,1.3999999999999995,0.07764364861664726,0.027613402398641577,0.04873921007711465,0.09590784478046585,0.004143782128676018,0.0012939785291263294,1005.2089763192315,1411.3692077229487,12.190000000000001,1.0
9,1.6000000000000003,0.08427758988601221,0.0371561302038,0.04599743741844898,0.08978959850330084,0.004443174977132296,0.0011234297169336188,992.0419693924871,1349.3291643382483,12.030000000000001,1.0
10,1.7999999999999998,0.09027684884714632,0.04587150294675074,0.04341426218602635,0.08404851168520078,0.004757822181836495,0.0009929038095939952,982.5303212454824,1298.15726471105,11.930000000000001,1.0
11,2.0,0.09572834938139431,0.05372373519474303,0.04109366282653634,0.07892354571694127,0.005046467647664108,0.0008922245365701987,974.9516884932846,1256.0129790250246,11.860000000000001,1.0
12,2.2000000000000006,0.10070383531597826,0.06100490014513003,0.038884388861306685,0.07409396862253077,0.005290220748503582,0.0008097441013253584,968.0290917461074,1218.6806396962238,11.82,1.0
13,2.4,0.10526304553491962,0.0676224175106034,0.03689712083687769,0.06979234095516713,0.00547825472677455,0.0007462888396429584,961.5283794042206,1186.8430410965498,11.780000000000001,1.0
14,2.6,0.10945612414928066,0.07365976056719196,0.03509897619120416,0.06596553122629976,0.005611418750541996,0.0007001648815631961,955.1897451756647,1159.0717626935375,11.770000000000001,1.0
