,C/O ratio,CH4 in,CH4 out,CO out,H2 out,H2O out,CO2 out,Exit temp,Max temp,Dist to max temp,O2 conv
0,0.6000000000000001,0.04220610931192466,0.00039094859932004716,0.03333934900371275,0.05617765517847455,0.024955234628172722,0.0060229355753164985,1865.0281069531939,1955.5075311459195,12.72,0.9999999884850653
1,0.7000000000000002,0.04764223879568619,0.002523853350273099,0.023333080469634893,0.04255571118198243,0.031989157067673094,0.006144163227385716,1801.4537343805787,1913.2375042305969,12.17,0.9934424694019759
2,0.8,0.05273657570711542,0.005080778744161949,0.0189513385284372,0.03938971380723239,0.03336263549263644,0.006192828218005427,1724.4836155857647,1880.8693743220479,11.8,0.9814943295564117
3,0.8999999999999999,0.05752037248751414,0.008684472504304746,0.0173765183087215,0.039288151546370664,0.03311477502214744,0.006241608947763529,1664.139125428141,1853.9166991805378,11.540000000000001,0.9853447731178793
4,1.0,0.06202118410625546,0.013132658306420884,0.016331606072671444,0.03880717762523134,0.032615019339054745,0.006292845755000253,1617.6331943450439,1830.553578157678,11.350000000000001,0.9898395309450926
5,1.1,0.0662633991614029,0.018634694654789875,0.01581164643851585,0.03816539012418287,0.0315297241513512,0.0063315176831863305,1578.485402757903,1806.5780852852797,11.21,0.996151888843217
6,1.1999999999999995,0.07026868199272561,0.027812210914028083,0.012675143471981053,0.031945718737551025,0.029437686974878276,0.006368596287457989,1524.0172495394065,1784.3513244084681,11.1,0.9367503328370802
7,1.2999999999999998,0.0740563427297203,0.03278786602909356,0.0113864285264868,0.029479434246616018,0.029434927492561304,0.006404822970423404,1505.6818972263202,1762.771604315778,11.010000000000002,0.9415153332176281
8,1.3999999999999995,0.07764364861664726,0.037310792283499664,0.010987764562129193,0.028337527174982675,0.029246759673198584,0.006434675958453896,1492.9732522213587,1740.8322880773474,10.94,0.9575911064304738
9,1.6000000000000003,0.08427758988601221,0.04661528142718844,0.009712112183225432,0.024850701359218047,0.028763437878452248,0.006473210809680131,1470.1276008680322,1695.5796429153386,10.85,0.9763197120237195
10,1.7999999999999998,0.09027684884714632,0.05585085823706695,0.008774819728103995,0.021432345331328834,0.02794294230047445,0.006478642124926754,1452.0228712000924,1648.232960234759,10.790000000000001,0.9905427778633624
11,2.0,0.09572834938139431,0.07029211850720346,0.01825233637746676,0.033083159205504864,0.01682404331941938,0.006400380898260844,1376.7143371871234,1599.751889670216,10.76,0.9999999999998294
12,2.2000000000000006,0.10070383531597826,0.07796552603201039,0.015502768256877585,0.026829299222843064,0.017549693216484863,0.006360625829105928,1371.5677378583225,1551.9434479858135,10.740000000000002,0.9999999999997423
13,2.4,0.10526304553491962,0.0848998777251673,0.013178667370461541,0.02149200153790502,0.01808912384871778,0.006295550683714304,1364.498634666638,1507.3690328098762,10.72,0.9999999999996411
14,2.6,0.10945612414928066,0.09115020571111433,0.011313241972621192,0.017208799833508308,0.018362014323863456,0.0062113528495965405,1354.0584109681342,1466.6599727037885,10.690000000000001,0.9999999999995803
