,C/O ratio,CH4 in,CH4 out,CO out,H2 out,H2O out,CO2 out,Exit temp,Max temp,Dist to max temp,O2 conv
0,0.6000000000000001,0.04220610931192466,0.04215950567574291,3.125992763581376e-05,1.3328766477542222e-09,9.309162649078368e-05,1.5267500263720116e-05,704.4826486853362,704.4826486853599,20.080000000000002,0.0022018630266670185
1,0.7000000000000002,0.04764223879568619,0.04757520496944781,4.187521502465287e-05,2.920875743186915e-09,0.00013391060260547978,2.5055859093259235e-05,706.3979609462599,706.3979609462685,63.35,0.0033190813986112167
2,0.8,0.05273657570711542,0.052643284096832374,5.418995022732118e-05,5.997842411392784e-09,0.00018637675689860757,3.896801692324961e-05,708.8432261275445,708.8432261275776,53.53,0.004831607869479524
3,0.8999999999999999,0.05752037248751414,0.057393217512969934,6.861445522709707e-05,1.1840880784576796e-08,0.0002540438914728203,5.8371042515102476e-05,711.9762034071613,711.976203407183,32.34,0.006875142107721809
4,1.0,0.06202118410625546,0.06184968162080269,8.597008313236429e-05,2.300311462847575e-08,0.000342665083285623,8.532114736660734e-05,716.0504104499773,716.0504104501331,21.19,0.009662471371967506
5,1.1,0.0662633991614029,0.06603197415344071,0.00010792167165610039,4.516810365463458e-08,0.00046241380459972263,0.00012324264271698366,721.5106539943594,721.5106539943791,20.040000000000003,0.013559573563907138
6,1.1999999999999995,0.07026868199272561,0.0699515074818364,0.00013818324467160356,9.336848034664126e-08,0.0006337742332249245,0.00017867032216622737,729.2441225627149,729.244122563063,20.740000000000002,0.01928538440671429
7,1.2999999999999998,0.0740563427297203,0.07360203358737938,0.00018694550526383624,2.2126362211804327e-07,0.0009077990144047741,0.0002669649700037005,741.4321771779065,741.4321771780458,25.480000000000004,0.028590095394402756
8,1.3999999999999995,0.07764364861664726,0.07690198903555627,0.0002986950921692165,7.999176931996792e-07,0.0014817501136987503,0.0004424517425429753,766.2988766244658,766.2988766244658,70.0,0.0480591770391312
9,1.6000000000000003,0.08427758988601221,0.05284116396878847,0.02644239413373111,0.044437496993418486,0.01765584838181847,0.00436321849608409,1392.0106345546865,1551.6427853467615,19.180000000000003,0.9999999696473022
10,1.7999999999999998,0.09027684884714632,0.05662333598160141,0.029682264474392848,0.05447555920774141,0.012739818873561955,0.003921878645549131,1249.0814410145806,1494.4996112787326,17.67,0.9999999999999996
11,2.0,0.09572834938139431,0.06215604804672567,0.02982613868712426,0.05659048745436232,0.010550829112321265,0.0037440566406609353,1177.0532651503015,1443.8857277103345,16.530000000000005,1.0
12,2.2000000000000006,0.10070383531597826,0.06776994763195507,0.02928225578084538,0.056600637230881774,0.009243453645902077,0.0036397755187161083,1130.978505286076,1401.3971292560252,15.66,1.0
13,2.4,0.10526304553491962,0.0730763706459917,0.028550921286229967,0.055876127327230456,0.00835779397402897,0.0035666129584121186,1097.936806646857,1365.641927734485,14.97,1.0
14,2.6,0.10945612414928066,0.07845260341051674,0.02748520806513061,0.05430671505935757,0.0076621045713379824,0.0034994654582375597,1070.7255809885469,1330.4212445917058,14.42,1.0
