,C/O ratio,CH4 in,CH4 out,CO out,H2 out,H2O out,CO2 out,Exit temp,Max temp,Dist to max temp,O2 conv
0,0.6000000000000001,0.04220610931192466,3.92558217482116e-05,0.03783807470468162,0.059719499121684026,0.02433848652751754,0.004082522023323083,1827.5509588112754,1964.2219687322417,12.530000000000001,0.9999999936559463
1,0.7000000000000002,0.04764223879568619,0.0009489415235493579,0.0421118976579634,0.07405273935365009,0.018486821120585036,0.003743260213925556,1591.7174822609693,1920.4649989748025,11.99,0.9999999999811693
2,0.8,0.05273657570711542,0.006030741237900002,0.04207510142241471,0.07623285946806135,0.016310207362993902,0.0037675625893869315,1495.984346611863,1888.7063347226792,11.64,0.9999999999987198
3,0.8999999999999999,0.05752037248751414,0.012382271276403433,0.040453013105187154,0.07377771654664884,0.01568825124661301,0.003885000907781962,1455.3704995238113,1862.603287871702,11.4,0.9999999999995738
4,1.0,0.06202118410625546,0.018839624105446973,0.038439031552145744,0.07008609846715846,0.015538920601008237,0.004021455000687811,1432.2908235233701,1839.093978299001,11.22,0.9999999999997542
5,1.1,0.0662633991614029,0.025129440118774382,0.03632169085612187,0.06600376201679463,0.01558993492320634,0.004163662565104463,1417.200170985722,1817.255554502706,11.090000000000002,0.9999999999998161
6,1.1999999999999995,0.07026868199272561,0.03116545690500165,0.03420545385600733,0.06184205915126531,0.01573744590654602,0.0043068689286216225,1406.3957926038415,1796.1792165051163,10.990000000000002,0.9999999999998415
7,1.3000000000000003,0.07405634272972031,0.036927523790820094,0.03212626459933668,0.05772037088547507,0.015937540580885003,0.00445098801034054,1398.2808335139894,1775.777548851867,10.910000000000002,0.9999999999998503
8,1.3999999999999995,0.07764364861664726,0.042414193020768966,0.03010290878555465,0.053701634411505286,0.01616471375201411,0.004595719960645427,1391.925671281045,1755.4353482347417,10.84,0.9999999999998498
9,1.6000000000000003,0.08427758988601221,0.052601130575359305,0.026248009353781722,0.04607313176051386,0.01664693056938875,0.004889008894919493,1382.5796158112353,1713.8499058042078,10.76,0.9999999999998298
10,1.7999999999999998,0.09027684884714632,0.06183281691837335,0.02265464780057109,0.03904727948750937,0.017114425297396905,0.005191998517602047,1375.9749469828578,1670.213515734148,10.700000000000001,0.9999999999997861
11,2.0,0.09572834938139431,0.07019609873940058,0.01936333000897326,0.032731755620867206,0.017498240013668936,0.0055009739032066554,1370.1846794859537,1624.6362980866677,10.67,0.9999999999997231
12,2.2,0.10070383531597825,0.07778184425291632,0.016395732766323615,0.027172134300081526,0.017756128623061564,0.005811007561809387,1364.0953826332643,1578.701088346051,10.650000000000002,0.9999999999996474
13,2.4,0.10526304553491962,0.0846412806453206,0.013829205927044905,0.022493719923081912,0.01783509826639153,0.006097394951896335,1356.088143294371,1534.5072282327844,10.63,0.9999999999995927
14,2.6000000000000005,0.10945612414928066,0.09081665086842784,0.011713917742269422,0.018753238014061903,0.01772016003776186,0.0063320346985847095,1345.1009534263576,1493.381350480323,10.6,0.999999999999598
