,C/O ratio,CH4 in,CH4 out,CO out,H2 out,H2O out,CO2 out,Exit temp,Max temp,Dist to max temp,O2 conv
0,0.6000000000000001,0.04220610931192466,0.0006164933032192265,0.03282935058336272,0.048826381490337266,0.02953991320040207,0.004007546201651399,1883.7742591336769,1948.8241251625589,12.97,0.9999999695441394
1,0.7000000000000002,0.04764223879568619,0.0008768107963597028,0.03451917163421454,0.05955865073302495,0.025704151330391747,0.00402474601953133,1700.2557307711827,1906.1015182317944,12.38,0.9999999995333947
2,0.8,0.05273657570711542,0.004306922098529843,0.034374746245494366,0.06319281402002687,0.02362808896859041,0.004064642578311849,1587.3749007055565,1876.0478865506636,11.99,0.9999999999810919
3,0.9000000000000001,0.05752037248751414,0.009593064163503466,0.031155940190001175,0.058668607929921054,0.02452052907828316,0.004128794769963746,1547.8832116622507,1845.2843336556716,11.71,0.9999999999932536
4,0.9999999999999999,0.06202118410625546,0.015757475854609994,0.029487188918302033,0.055556136190921104,0.02432187487239113,0.004194804828072768,1519.6768360216313,1823.3187551623137,11.520000000000001,0.9999999999969724
5,1.1000000000000005,0.06626339916140292,0.02142076452312103,0.026853151223318553,0.05077948775177057,0.025085139163656886,0.004268548939962386,1504.0847767858384,1799.8655272855858,11.38,0.9999999999977379
6,1.2,0.07026868199272561,0.027316807514683055,0.024904279013724866,0.046847187046709794,0.025220669206528195,0.00433713606564933,1488.4654985300288,1777.1203576661048,11.23,0.9999999999983469
7,1.3000000000000003,0.07405634272972031,0.033045270492688,0.02300629597082639,0.04289403265817171,0.025378986742711728,0.004405837950289985,1476.4091334215,1755.205770056406,11.14,0.9999999999986473
8,1.3999999999999995,0.07764364861664726,0.03824423882455226,0.020617736931454734,0.03817277561940037,0.02613256939055602,0.004477293997430911,1470.9772650455102,1732.9385909234343,11.06,0.9999999999986653
9,1.6000000000000005,0.08427758988601222,0.04792286997732353,0.01546548547215571,0.028235856021217573,0.02798296494739048,0.004611533973363629,1463.7490101856388,1684.2521392152532,10.96,0.9999999999007214
10,1.8,0.09027684884714632,0.056561421215987576,0.012380231873366954,0.02198308334130978,0.028486775895171432,0.004729974254047216,1449.4124960073502,1637.937147212421,10.920000000000002,0.9999979761748377
11,2.0,0.09572834938139431,0.06573369410060917,0.010328360443555224,0.01685629213704188,0.027887230046433946,0.004818778893895033,1433.7646865205986,1586.7540267969441,10.85,0.9998689428603652
12,2.2,0.10070383531597825,0.07448239749181251,0.009187366316954241,0.012993126504481593,0.02680275220832739,0.004887133418365003,1420.6793629763524,1539.6049641704108,10.81,0.9998453542860583
13,2.4,0.10526304553491962,0.08502501715031302,0.014318112875735603,0.019453541759509058,0.019736956655538904,0.004933351674343947,1366.2009521975133,1496.8676118784265,10.780000000000001,0.999999999999869
14,2.6,0.10945612414928066,0.09127655193833457,0.012407759451949708,0.015568790825655482,0.01973157772184497,0.004981446968133018,1353.518031086351,1456.3603995779208,10.75,0.9999999999998673
