,C/O ratio,CH4 in,CH4 out,CO out,H2 out,H2O out,CO2 out,Exit temp,Max temp,Dist to max temp,O2 conv
0,0.6000000000000001,0.04220610931192466,0.00022941781395757123,0.03591655180028465,0.057308299075126364,0.02517370069905858,0.0046253727088601156,1847.071260413078,1951.633809807322,13.030000000000001,0.9999999910898145
1,0.7000000000000002,0.04764223879568619,0.0008137066696569858,0.03406154067452758,0.06078383391153081,0.024728650554578364,0.004634789028272725,1693.0326541594163,1909.440443226893,12.42,0.9999999996698424
2,0.8,0.05273657570711542,0.003198765226317962,0.031956444963791505,0.06149523814160142,0.024647569856778417,0.00465813205516137,1593.520905885775,1877.3785982404106,12.010000000000002,0.9999999999695824
3,0.8999999999999999,0.05752037248751414,0.007883660506435249,0.029443155425668104,0.05839413493243241,0.02531954986123522,0.004696983831033765,1550.4427271353707,1851.2352011031458,11.72,0.9999999999890025
4,1.0,0.06202118410625546,0.01393269910480885,0.026036426031831154,0.05229994096516827,0.026526171737708566,0.004732749743324772,1532.5322482558213,1824.6675976798756,11.500000000000002,0.999999999991289
5,1.1,0.0662633991614029,0.020161338956050816,0.02340356713652492,0.046936783570227264,0.027289435018620824,0.004772366206994157,1521.8422376588574,1801.4684962406172,11.340000000000002,0.9999999999915904
6,1.1999999999999995,0.07026868199272561,0.025775874356296993,0.020016195206126467,0.040330568606542834,0.028908500464240677,0.0048149822970335295,1520.847414931154,1778.4208801310135,11.21,0.999999997213961
7,1.2999999999999998,0.0740563427297203,0.0321846020264539,0.019775519144859612,0.03888945055926637,0.027496562533624338,0.0048458973546424465,1496.1256078207246,1756.0253050065146,11.120000000000001,0.9999999997313759
8,1.3999999999999995,0.07764364861664726,0.0367380319232786,0.01648711953688096,0.03293447549903058,0.02919487123983298,0.004885807037129699,1493.795412215434,1733.4792130236517,11.040000000000001,0.9999506123920578
9,1.6000000000000003,0.08427758988601221,0.046487019316887035,0.013105760165742457,0.026050206431413675,0.02956822081761638,0.004947005580188823,1470.5320012083116,1686.7175241954521,10.93,0.9980761590653492
10,1.7999999999999998,0.09027684884714632,0.05619739010330813,0.01098212271641199,0.020734235152011782,0.02900525096887803,0.00498837168922524,1450.2007595372452,1637.8480554266928,10.860000000000001,0.996310903548598
11,2.0,0.09572834938139431,0.0655886078315166,0.009899144045657155,0.0167580226939374,0.02788848409568951,0.005007550548315974,1434.3280544387476,1588.2364688644786,10.81,0.9988200194165903
12,2.2000000000000006,0.10070383531597826,0.07814137448838208,0.01664555054407942,0.024863073779539963,0.01911640104949334,0.005005826787878032,1371.9471525340675,1540.4156755180761,10.780000000000001,0.999999999999773
13,2.4,0.10526304553491962,0.0850344274727252,0.014323949970318394,0.019781408545735964,0.019516399593753446,0.005009237635257464,1363.8369014660088,1496.138248019896,10.76,0.9999999999996929
14,2.6,0.10945612414928066,0.0912274164256014,0.012482123682026657,0.01583347707362119,0.019619034581305317,0.004998395867303297,1351.8952223530964,1455.9990600415922,10.730000000000002,0.9999999999996639
