,C/O ratio,CH4 in,CH4 out,CO out,H2 out,H2O out,CO2 out,Exit temp,Max temp,Dist to max temp,O2 conv
0,0.6000000000000001,0.04220610931192466,0.04220476003594478,1.0819048727464457e-06,2.6292658845625273e-10,2.697708171241105e-06,2.669838661562042e-07,700.1221602273641,700.1221602274117,20.41,6.13218715657648e-05
1,0.7000000000000002,0.04764223879568619,0.04764037646826032,1.4477540963611203e-06,5.22436367214224e-10,3.7233646981270167e-06,4.1406151843972883e-07,700.1658347996395,700.1658347996614,20.25,8.814618441999416e-05
2,0.8,0.05273657570711542,0.05273410910989676,1.8572703935313125e-06,9.549077317076722e-10,4.931264177479766e-06,6.08676590889142e-07,700.2165358810023,700.2165358810137,20.190000000000005,0.0001214475144722929
3,0.8999999999999999,0.05752037248751414,0.0575172069886598,2.3065847548240665e-06,1.6370113022656063e-09,6.328158273296919e-06,8.581124840433362e-07,700.2745039844879,700.2745039844991,21.300000000000004,0.000161958113152515
4,1.0,0.06202118410625546,0.062017221662727995,2.791766960632944e-06,2.667218288302415e-09,7.920772090453478e-06,1.169711403396921e-06,700.3399964714796,700.3399964715138,42.27,0.00021044399909439656
5,1.1,0.0662633991614029,0.06625853833401328,3.3088822163520075e-06,4.1694993919621226e-09,9.715775015639284e-06,1.5508049980028723e-06,700.413279824586,700.4132798246012,59.63,0.00026770318258542697
6,1.1999999999999995,0.07026868199272561,0.07026281797000691,3.8540474150369844e-06,6.297312743501712e-09,1.171975908686519e-05,2.0086492796249835e-06,700.4946238565237,700.4946238565327,62.90000000000001,0.0003345638400473843
7,1.2999999999999998,0.0740563427297203,0.07404936735663048,4.423485094079656e-06,9.237870075503076e-09,1.3939225085754422e-05,2.550365847776437e-06,700.5842974255913,700.5842974256968,21.150000000000002,0.0004118825316956204
8,1.3999999999999995,0.07764364861664726,0.07763545042408118,5.013573391354594e-06,1.3216672448380983e-08,1.6380576389732698e-05,3.182891129516643e-06,700.6825653728915,700.6825653729419,20.28,0.0005005425541989705
9,1.6000000000000003,0.08427758988601221,0.08426659851581056,6.242253397370036e-06,2.5411535544492912e-08,2.195407776241019e-05,4.74694940267639e-06,700.9059123036407,700.9059123041346,20.12,0.0007155452133358606
10,1.7999999999999998,0.09027684884714632,0.09026257915588935,7.515752774306975e-06,4.564089794771723e-08,2.8489780081302232e-05,6.75129746198107e-06,701.1666463590834,701.1666463593502,20.610000000000003,0.0009871268587834617
11,2.0,0.09572834938139431,0.09571028998252488,8.814367611651198e-06,7.761271670555764e-08,3.603646532051456e-05,9.241884792903258e-06,701.4666352747412,701.466635274749,32.34,0.0013232160958875484
12,2.2000000000000006,0.10070383531597826,0.10068144788467652,1.0123442940904747e-05,1.2618165875728739e-07,4.464315815767059e-05,1.2260306506298647e-05,701.8076645692404,701.8076645693017,20.12,0.0017321284238969942
13,2.4,0.10526304553491962,0.10523576336106122,1.1433388179344045e-05,1.9757472971599331e-07,5.436040425444655e-05,1.5844539861568257e-05,702.1914949862559,702.1914949862636,67.47,0.0022226130224927143
14,2.6,0.10945612414928066,0.10942334980337495,1.2739388575308041e-05,2.996545025038396e-07,6.524178111438717e-05,2.0030119872268548e-05,702.6199370223785,702.6199370223954,58.510000000000005,0.002803934535007765
