,C/O ratio,CH4 in,CH4 out,CO out,H2 out,H2O out,CO2 out,Exit temp,Max temp,Dist to max temp,O2 conv
0,0.6000000000000001,0.04220610931192466,3.9504818765869326e-05,0.03688786000250561,0.06068765759292237,0.023375504469695267,0.005039134979541259,1830.7686865408023,1963.7845378868683,12.530000000000001,0.999999993812297
1,0.7000000000000002,0.04764223879568619,0.006797255991284975,0.010679069343938983,0.03613840883299881,0.025390609185840653,0.010046388439400752,1678.5462244828082,1920.3766162332065,11.99,0.8252150022316633
2,0.8,0.05273657570711542,0.011251847260683658,0.008336708493863846,0.03462282847998426,0.025407946099665644,0.010262036182551516,1620.2925032017415,1889.2084190114201,11.64,0.8232787849133625
3,0.8999999999999999,0.05752037248751414,0.015410188907552969,0.007685386006154936,0.03477654701004435,0.025396898657089575,0.010442638325422247,1587.1198521293677,1863.5185044590014,11.4,0.8444503492773101
4,1.0,0.06202118410625546,0.020046798825417943,0.006443406138266481,0.03350238213534596,0.02544097764556617,0.010607667589552805,1558.0338716612184,1840.4927451123629,11.22,0.8561989476196973
5,1.1,0.0662633991614029,0.024259939491652165,0.006130477866482164,0.033373344760345716,0.025408452050330963,0.010742769164209319,1539.127076097189,1818.9960096079988,11.090000000000002,0.8802695752702656
6,1.1999999999999995,0.07026868199272561,0.028579138125241387,0.0056834067981181985,0.03275587952064593,0.025355175434611646,0.010856509590558026,1522.7291202504744,1798.6258254091965,10.98,0.9009063588156181
7,1.2999999999999998,0.0740563427297203,0.03303382105202738,0.004966142369866194,0.0314963853463831,0.025304777227802125,0.010955257489977655,1507.7631120398707,1778.8056835460195,10.900000000000002,0.9159504273948839
8,1.3999999999999995,0.07764364861664726,0.03734462790404722,0.004563151683052399,0.03054909027353061,0.025174583120045335,0.01102552381257939,1495.7829686004914,1759.2332121581112,10.84,0.9338664715526847
9,1.6000000000000003,0.08427758988601221,0.04600806045150675,0.003741958906615345,0.02811141941018565,0.0247824487928685,0.01109775983692362,1475.3936580603088,1719.105367162968,10.75,0.9629762860049086
10,1.7999999999999998,0.09027684884714632,0.054758949011698164,0.0031778725541625084,0.025368200225614795,0.024113918977783606,0.011060077981857491,1458.6058719713594,1677.1220998283497,10.700000000000001,0.985278821837289
11,2.0,0.09572834938139431,0.07008371852961306,0.017038982342840757,0.03529262025547761,0.015090826473235638,0.00786680422988085,1375.4907395788061,1632.8800604866015,10.67,0.9999999999998241
12,2.2000000000000006,0.10070383531597826,0.07776291933156253,0.014184150008201772,0.029072328068971715,0.01575797308370805,0.007915795919597778,1371.2159257594626,1587.5626528433224,10.660000000000002,0.9999999999997411
13,2.4,0.10526304553491962,0.08475854536380106,0.011633232344131038,0.023544785550327945,0.01630299921266091,0.007961329123493609,1366.4049982194622,1543.16942339363,10.650000000000002,0.9999999999996219
14,2.6,0.10945612414928066,0.09110395140570059,0.009467189062405564,0.01890912020667779,0.016634199945438084,0.007998189878813905,1359.3083339320938,1501.3211507404467,10.64,0.9999999999995042
