,C/O ratio,CH4 in,CH4 out,CO out,H2 out,H2O out,CO2 out,Exit temp,Max temp,Dist to max temp,O2 conv
0,0.6000000000000001,0.04220610931192466,4.631262153239253e-05,0.03993541751867891,0.057410295093319345,0.02657359214359462,0.0019162578477878826,1820.9855282884457,1952.6519327202188,14.76,0.9999999928146807
1,0.7000000000000002,0.04764223879568619,0.001486952380212875,0.043138225329811916,0.06997572044348377,0.021181555706657952,0.001870164385259203,1604.2648865935662,1906.842051052422,13.750000000000002,0.9999999999653906
2,0.8,0.05273657570711542,0.0065274014154894176,0.042182648149005096,0.07024020474728737,0.020008157786952273,0.0018647952932320639,1522.1317639349274,1872.9828544697364,13.080000000000002,0.9999999999960106
3,0.9000000000000001,0.05752037248751414,0.012438181930470547,0.04039545675319516,0.06743218053271131,0.019884517777436852,0.0018758314323749636,1482.1857269172951,1844.6347776137109,12.610000000000001,0.9999999999984948
4,1.0,0.06202118410625546,0.01877817574435198,0.03824967424971038,0.0633792129426482,0.019984174511949705,0.0018933870539398561,1456.1551317919484,1817.8102025260048,12.25,0.9999999999991429
5,1.1,0.0662633991614029,0.024941815120051364,0.03626427878665636,0.059327665248103505,0.020141205808543516,0.0019166447366269091,1438.2713701783316,1792.6297183118404,11.98,0.9999999999993878
6,1.1999999999999995,0.07026868199272561,0.030934251851857733,0.034340507383495415,0.05523970376982357,0.020331353121483604,0.001943087839764359,1425.0821209838923,1768.3922372742018,11.780000000000001,0.9999999999994976
7,1.3000000000000003,0.07405634272972031,0.03674885673712937,0.0325300756529498,0.051255277096205955,0.02049249750925317,0.0019715076260878174,1414.780592815785,1743.7403346401102,11.610000000000001,0.9999999999995524
8,1.3999999999999995,0.07764364861664726,0.0423731192197769,0.03083151517718354,0.047399709643857535,0.02062534096413774,0.002000994854849233,1406.6799130638572,1718.9112474595072,11.49,0.9999999999995743
9,1.6000000000000005,0.08427758988601222,0.05337187420296463,0.028160154473984664,0.04061821124915485,0.02039244130257764,0.0020612932626955676,1393.69929183673,1667.4326769394963,11.3,0.9999999999996031
10,1.7999999999999998,0.09027684884714632,0.06255660934708714,0.024795318645847306,0.03337442068528385,0.02110578613275203,0.0021258171777010855,1385.6541619842876,1614.039544071424,11.170000000000002,0.9999999999994835
11,2.0,0.09572834938139431,0.07088241164740779,0.021758293658705272,0.026852338430472005,0.02172954253234709,0.002187619784351831,1378.5104668345589,1561.6969041815244,11.080000000000002,0.9999999999992899
12,2.2,0.10070383531597825,0.07840808138241051,0.019137441460502072,0.02127920812325598,0.022148563760461166,0.0022437165243044464,1369.8990403175471,1513.0157564760345,11.010000000000002,0.9999999999990795
13,2.4,0.10526304553491962,0.08516383795939114,0.017021608525272396,0.01690413665623011,0.022253767945505855,0.0022917167727884917,1357.5898399478162,1469.000528546407,10.950000000000001,0.9999999999990183
14,2.6000000000000005,0.10945612414928066,0.09108923220398309,0.015431531245860192,0.013802747923462567,0.02208088904903623,0.002332034453451723,1341.7400187633393,1430.7524191753917,10.900000000000002,0.9999999999991644
