,C/O ratio,CH4 in,CH4 out,CO out,H2 out,H2O out,CO2 out,Exit temp,Max temp,Dist to max temp,O2 conv
0,0.6000000000000001,0.04220610931192466,1.1719379971233096e-05,0.03807538138549667,0.06010658078827125,0.02417838285331102,0.004046217038979804,1824.8300191576,1911.5143569539364,13.100000000000001,0.9999999940491352
1,0.7000000000000002,0.04764223879568619,6.296103034485244e-05,0.04393960511249573,0.07793947906963908,0.017091497672705208,0.0035168228189505855,1553.4257283607549,1838.1437016914026,12.540000000000001,0.9999999999941508
2,0.8,0.05273657570711542,0.0013484457734844711,0.04821118694173397,0.09123055450338118,0.011482178648303806,0.003113625779735477,1347.5747212979334,1779.0031253872453,12.180000000000001,0.9999999999999946
3,0.8999999999999999,0.05752037248751414,0.004674640781058377,0.050048221051331665,0.09734106189530498,0.008322333367357984,0.002773707085147174,1225.4919643231258,1724.5830470631468,11.950000000000001,1.0
4,1.0,0.06202118410625546,0.010783358555580009,0.04856964495372867,0.09430272996042222,0.008152237547860664,0.0026593623035801334,1199.8174950711143,1673.0216973155207,11.770000000000001,1.0
5,1.1,0.0662633991614029,0.014514475082859685,0.04940378892612433,0.0973326778190833,0.006156695498412968,0.002342723308422874,1121.1690709863535,1624.2695761568175,11.64,1.0
6,1.1999999999999995,0.07026868199272561,0.019802981161168895,0.04824608589258934,0.09503923906127068,0.00588285852756439,0.0022183404327312394,1097.6604370000318,1579.606357714488,11.55,1.0
7,1.2999999999999998,0.0740563427297203,0.02500558640599093,0.04692737978967052,0.09229795535254058,0.005798098457378854,0.00212287878410659,1081.4508309031723,1538.8728814323674,11.46,1.0
8,1.3999999999999995,0.07764364861664726,0.030017614771094856,0.04558526845046231,0.08942288560142246,0.005810110847879013,0.0020441431505954883,1069.49350683315,1502.3346633912083,11.4,1.0
9,1.6000000000000003,0.08427758988601221,0.03948415567434555,0.042878678815567534,0.0835865261844946,0.005985378927518116,0.001914737885245184,1052.4208038621393,1438.4599163362861,11.31,1.0
10,1.7999999999999998,0.09027684884714632,0.048164716671173814,0.04030523557250216,0.07798682695035841,0.006238614342863556,0.0018048898105331944,1040.2882794540849,1385.0920824801915,11.270000000000001,1.0
11,2.0,0.09572834938139431,0.05605978693731327,0.03796423761181132,0.07281875708821385,0.006501593314816219,0.0017074777761300144,1030.9190184379916,1340.01605806539,11.240000000000002,1.0
12,2.2000000000000006,0.10070383531597826,0.06331266764020599,0.03576531598456004,0.0680315167943895,0.006760348276204787,0.001621109372227255,1022.9186243413217,1300.9730231773758,11.23,1.0
13,2.4,0.10526304553491962,0.06986752492422785,0.033852638800464054,0.06374974125631383,0.006975812866028214,0.0015459098770733977,1016.163584085704,1267.7479429672924,11.23,1.0
14,2.6,0.10945612414928066,0.07598826146875633,0.031981382675834426,0.059745487625756134,0.00717289654863813,0.0014826462909188387,1009.5842202458847,1237.5207484021898,11.240000000000002,1.0
