,C/O ratio,CH4 in,CH4 out,CO out,H2 out,H2O out,CO2 out,Exit temp,Max temp,Dist to max temp,O2 conv
0,0.6000000000000001,0.04220610931192466,0.0041342709250721,0.010516135179499439,0.03159726654019153,0.026185511890197972,0.009235992346062713,1724.0596987868212,1951.609687131972,12.490000000000002,0.7843807495564473
1,0.7000000000000002,0.04764223879568619,0.007981682849315328,0.008468071044313274,0.03160797544513082,0.025963674743640718,0.009488559323197277,1651.437099358464,1912.4851808829596,12.0,0.7847639073978455
2,0.8,0.05273657570711542,0.012151083767929435,0.0073883863843525995,0.03171915807272674,0.025911990858810234,0.009713364175235177,1606.3956066054975,1883.0186955436602,11.670000000000002,0.7998957720767412
3,0.9000000000000001,0.05752037248751414,0.01603938908673602,0.007272566191204015,0.0326964261653187,0.02590938340130481,0.009920454088278617,1579.2668570962417,1859.5123528103848,11.440000000000001,0.8296714420235721
4,1.0,0.06202118410625546,0.02022123563871141,0.006901989291260468,0.032844976555868266,0.025877578484483982,0.01010409983176848,1556.0896039735708,1836.937664684852,11.270000000000001,0.8543952221581704
5,1.1000000000000005,0.06626339916140292,0.025382304641207637,0.005172086503182525,0.030371322872283307,0.025845226644565983,0.010271733462765156,1529.8902655247953,1813.900878770648,11.13,0.8559791918599304
6,1.2,0.07026868199272561,0.02958700641868799,0.004826462684617752,0.02999914175174022,0.025797363583735366,0.010416678206409315,1515.247708217058,1794.4485453089485,11.030000000000001,0.8788048679743292
7,1.3000000000000003,0.07405634272972031,0.033921960805909056,0.0043249166343719905,0.029145161905665747,0.025702960565356234,0.010539960660622533,1501.8828967511083,1774.835989061143,10.950000000000001,0.8972148059516953
8,1.3999999999999995,0.07764364861664726,0.03802355048540236,0.004094754402442264,0.028606829981838687,0.025577229012371448,0.010642287572105051,1491.437960196631,1756.0312313631202,10.89,0.9188636659365031
9,1.6000000000000003,0.08427758988601221,0.04659081359607914,0.003207228832055577,0.02627291647140887,0.025176979496208184,0.010781935317532949,1471.8443376914083,1716.588123161946,10.8,0.9483261759034799
10,1.7999999999999998,0.09027684884714632,0.055007121132757,0.002542178369916354,0.023751247047696083,0.024598253938293946,0.01083242498156367,1456.1036636872432,1675.8585206141581,10.75,0.9725587592743047
11,2.0,0.09572834938139431,0.06361279144896861,0.0018309630527719315,0.02054419191749319,0.023829699007222382,0.010781240862658316,1441.7656842087142,1632.1365331846725,10.72,0.9866881907583608
12,2.2,0.10070383531597825,0.07205063292165015,0.0013502417262189637,0.01727278011455521,0.02293431602964769,0.010635741610574501,1429.3481299991374,1587.6560759554532,10.700000000000001,0.9953163614274567
13,2.4,0.10526304553491962,0.0802473770875169,0.0009596968842610305,0.013852939805718,0.02201016607960523,0.010409356580331087,1418.1232184963267,1543.792022817631,10.68,0.9984771062737968
14,2.6000000000000005,0.10945612414928066,0.08808769124422179,0.0008116095248033923,0.010660730657290719,0.02102609804810731,0.010125594657124664,1408.0730100099372,1502.1904068999117,10.67,0.999875807340188
