,C/O ratio,CH4 in,CH4 out,CO out,H2 out,H2O out,CO2 out,Exit temp,Max temp,Dist to max temp,O2 conv
0,0.6000000000000001,0.04220610931192466,0.0038307375229488148,0.013298536298822454,0.03100037722245978,0.02802580590543085,0.0074295230831223176,1730.434145694286,1951.656825998689,12.530000000000001,0.7950543279229961
1,0.7000000000000002,0.04764223879568619,0.007325006798081436,0.01186302509829925,0.03178687558259132,0.0278981084679312,0.0075940137533729085,1661.0442525077237,1913.0335735723668,12.06,0.8032599665653443
2,0.8,0.05273657570711542,0.011279470964331708,0.011266655428312226,0.03259099416613644,0.02782310061936304,0.007743866743083158,1616.0156778603632,1881.8144923529485,11.71,0.8279673041131806
3,0.9000000000000001,0.05752037248751414,0.016023470607589182,0.00951687238929646,0.03085929497035459,0.02791936177044668,0.007897690343288629,1576.0763996141352,1855.4996871959884,11.47,0.8278806044405476
4,0.9999999999999999,0.06202118410625546,0.020079524020100784,0.009634400549138595,0.03164453821347067,0.027871270204944426,0.00802424948975239,1554.86991146898,1832.088826191041,11.3,0.8635320819325858
5,1.1000000000000005,0.06626339916140292,0.02428124499118234,0.009136074488176955,0.031184013345734316,0.027919097949373355,0.008154566570163176,1535.757947003342,1811.8635155344111,11.170000000000002,0.8810428494316196
6,1.2,0.07026868199272561,0.02946365094132965,0.007770910929073038,0.02890210773262278,0.027801845232088104,0.008259948343603869,1514.0819473212023,1787.8198466565054,11.06,0.8895396957747713
7,1.3000000000000003,0.07405634272972031,0.033081430149537565,0.008036110614074214,0.02937459917680919,0.027775152502292375,0.008367116178425468,1504.7468629906566,1770.63648388251,10.990000000000002,0.9168983857255074
8,1.3999999999999995,0.07764364861664726,0.037779027859096086,0.007110863558817261,0.0275359726474902,0.027635377991182514,0.008452775887816259,1490.6262527559538,1749.6733066608392,10.920000000000002,0.9260192768549457
9,1.6000000000000005,0.08427758988601222,0.046726176330563925,0.006225803285772926,0.025034901637735217,0.027079090070972627,0.008577730012189932,1470.0730715862462,1706.1750459285354,10.84,0.9575265554031998
10,1.8,0.09027684884714632,0.055205244108976814,0.005555736132196185,0.022538212325876605,0.026405822650485494,0.008661698489641234,1454.348554253239,1664.117494981585,10.790000000000001,0.9795530827548043
11,2.0,0.09572834938139431,0.06384120631762841,0.004721531936452247,0.019305153610048455,0.025541616095326816,0.00868599549627961,1439.9402157681259,1620.1220312395196,10.75,0.9903511261304612
12,2.2,0.10070383531597825,0.0728181984034927,0.0040269639672277785,0.01570379019699016,0.02437432012682678,0.008619939771760598,1426.502519455581,1571.441506142043,10.730000000000002,0.9971853498178512
13,2.4,0.10526304553491962,0.08107371739576877,0.0035111450496377243,0.012385683989440717,0.023283282517561895,0.008517183479549257,1415.3010170423872,1527.6334225899811,10.71,0.9994039871266722
14,2.6,0.10945612414928066,0.09116662500511805,0.009014126078450643,0.018842126608883295,0.01647583075710698,0.008303948264766511,1362.4762273945341,1486.8166347271915,10.690000000000001,0.9999999999999952
