,C/O ratio,CH4 in,CH4 out,CO out,H2 out,H2O out,CO2 out,Exit temp,Max temp,Dist to max temp,O2 conv
0,0.6000000000000001,0.04220610931192466,0.00013110956108700755,0.03633516699273121,0.059179546254649655,0.024133534225285493,0.004936324836562589,1839.0309368430317,1958.3315741934193,13.000000000000002,0.999999992437847
1,0.7000000000000002,0.04764223879568619,0.0009963138733392193,0.04080689196719748,0.07526291067330519,0.0172075612583587,0.005022873144861909,1596.662439274633,1913.0180697806582,12.390000000000002,0.9999999999822142
2,0.8,0.05273657570711542,0.006106208633604534,0.04079811869674751,0.07754407794998362,0.0149598195260424,0.005081299265542365,1501.3303646613288,1879.6999016912466,11.99,0.9999999999987941
3,0.8999999999999999,0.05752037248751414,0.012467565186553401,0.039264190557083106,0.07502880341170699,0.014400864531531173,0.005123108543046876,1460.2771722034547,1851.391620134068,11.700000000000001,0.999999999999599
4,1.0,0.06202118410625546,0.01892246344163722,0.03735070412870971,0.07124641428928256,0.014347160700500891,0.005161499086117992,1436.6686304373134,1825.7227548162195,11.49,0.9999999999997681
5,1.1,0.0662633991614029,0.025203738159867723,0.03533535409972284,0.06706238811223719,0.014505512499437713,0.0051991142302615185,1421.047843356282,1801.4274258474666,11.340000000000002,0.9999999999998257
6,1.1999999999999995,0.07026868199272561,0.031174401900890197,0.03335924869973384,0.06287611768247567,0.014768926583965525,0.005238582479911886,1409.9775862656306,1778.3804809585517,11.22,0.9999999999998482
7,1.2999999999999998,0.0740563427297203,0.03698431381903788,0.03133362252927664,0.05854086674524339,0.01508796874314903,0.005272191574352024,1401.3126874936015,1754.481432643213,11.120000000000001,0.9999999999998556
8,1.3999999999999995,0.07764364861664726,0.042464055003788026,0.02940540745678379,0.054389804651385626,0.015439609051723719,0.005307113088462756,1394.6447378410217,1730.5661540109202,11.040000000000001,0.9999999999998532
9,1.6000000000000005,0.08427758988601222,0.05262770024253801,0.02576839659919191,0.046533376923447424,0.016162117583936975,0.005371210149592801,1384.355032642972,1681.323479237226,10.94,0.999999999999832
10,1.7999999999999998,0.09027684884714632,0.06182134326215123,0.022454549015338204,0.03935150140300317,0.016852763688359865,0.0054229583293518135,1376.1894988519248,1630.0376123510953,10.870000000000001,0.9999999999997933
11,2.0,0.09572834938139431,0.07012386036014158,0.019533871996320708,0.03299671576613263,0.017430179522071647,0.005449780090332703,1367.8690752611628,1578.9481723861234,10.81,0.999999999999751
12,2.2000000000000006,0.10070383531597826,0.07758791505176062,0.01708557600604451,0.0276435593752716,0.01781489504991773,0.00543736629803472,1357.356955066371,1530.732002666956,10.77,0.9999999999997331
13,2.4,0.10526304553491962,0.08426703031683923,0.015127983215547895,0.023368661026061433,0.017965929727050245,0.005382688021596844,1343.500239959072,1486.594246326138,10.730000000000002,0.999999999999761
14,2.6,0.10945612414928066,0.09021864925344109,0.013597387291078901,0.020084447659900435,0.017908273790276482,0.0052963394976908084,1326.5682353876036,1446.785076610967,10.690000000000001,0.9999999999998198
