,C/O ratio,CH4 in,CH4 out,CO out,H2 out,H2O out,CO2 out,Exit temp,Max temp,Dist to max temp,O2 conv
0,0.6000000000000001,0.04220610931192466,0.00010673295085966053,0.03954727101070577,0.05629896057648109,0.027143464472969114,0.0018252878704787246,1827.0730691655206,1952.7565208137958,15.38,0.9999999914373568
1,0.7000000000000002,0.04764223879568619,0.0015864542521138534,0.04359035936336504,0.0703601090758588,0.0210097423875988,0.0017300059305967327,1600.5080167084973,1906.710272119392,14.230000000000002,0.9999999999677328
2,0.8,0.05273657570711542,0.007000764526517193,0.04335174964053194,0.07156846427913062,0.019196989102054942,0.0016858392535822446,1513.3886534783785,1872.629850989691,13.47,0.9999999999969359
3,0.8999999999999999,0.05752037248751414,0.013373667095293237,0.041844439915723834,0.06889709032759009,0.018742545846238707,0.001662069593794626,1472.2939647426488,1843.2590755955005,12.93,0.9999999999989264
4,1.0,0.06202118410625546,0.019799190770522102,0.0399871105503167,0.0651019666748603,0.018734704842261026,0.001649437743775114,1447.6362140639378,1816.6515731140812,12.530000000000001,0.9999999999993809
5,1.1,0.0662633991614029,0.026050232529577735,0.03802246350706322,0.06091820190362171,0.018928802598949638,0.001643792798255027,1431.0534046072428,1791.427833365937,12.220000000000002,0.9999999999995395
6,1.1999999999999995,0.07026868199272561,0.03204821513464239,0.0360471571814418,0.05664202447810973,0.019223530807964784,0.0016429315660703898,1418.9921352026697,1766.4411151786644,11.99,0.9999999999996034
7,1.2999999999999998,0.0740563427297203,0.037776135591025085,0.03409850337436941,0.052387734723971686,0.019576666294170816,0.001645257842259268,1409.8658830582133,1741.3270385550288,11.8,0.999999999999623
8,1.3999999999999995,0.07764364861664726,0.04323776222325071,0.032193111706027906,0.048205856896391744,0.019966582382518198,0.0016496198195242915,1402.8178324351622,1715.6830352370523,11.66,0.9999999999996145
9,1.6000000000000005,0.08427758988601222,0.05339117001485975,0.028561872270939443,0.04020732717364224,0.02078714246576451,0.0016617713299321192,1392.5680358461657,1662.5616025694198,11.440000000000001,0.9999999999995334
10,1.7999999999999998,0.09027684884714632,0.06258020026729903,0.02523924785183949,0.032887763904543205,0.021562271059787308,0.0016756288200672129,1384.6260432090075,1607.739477729891,11.3,0.999999999999378
11,2.0,0.09572834938139431,0.07088916704213198,0.02228706944500486,0.02640394172195341,0.022201416700180616,0.0016873124119637165,1376.76840252573,1554.5354810486813,11.19,0.9999999999991636
12,2.2000000000000006,0.10070383531597826,0.0783671685370237,0.01980819333503211,0.02102101512770583,0.022578513524718142,0.0016934203573804967,1366.4492924445842,1505.455854219927,11.1,0.9999999999990045
13,2.4,0.10526304553491962,0.08504973654098773,0.017850239165766068,0.01690305317020261,0.022623415586276962,0.0016926612443990182,1351.9870501235657,1461.2722011201572,11.02,0.9999999999990553
14,2.6,0.10945612414928066,0.09097724842045836,0.016340324936105044,0.01394179241910709,0.022384291810430414,0.0016867730513636214,1333.5721280963287,1421.7253969101023,10.950000000000001,0.9999999999992863
