,C/O ratio,CH4 in,CH4 out,CO out,H2 out,H2O out,CO2 out,Exit temp,Max temp,Dist to max temp,O2 conv
0,0.6000000000000001,0.04220610931192466,0.0410882530148537,0.0008962806325704388,2.6709541084422535e-10,0.002040336518248264,9.13387578249467e-05,785.1495177896693,785.1495177901202,60.02,0.044344729893360114
1,0.7000000000000002,0.04764223879568619,0.00432301343130582,0.04020622408906609,0.060228749308259034,0.024797254303200945,0.0015278373435502637,1690.9251791488796,1904.210977314543,19.110000000000003,0.9999991257938401
2,0.8,0.05273657570711542,0.008745253129881997,0.04157097784414284,0.06574563754553703,0.021316205855643144,0.0015164562395274498,1565.0760118746284,1868.7046136872857,17.35,0.9999999999805979
3,0.9000000000000001,0.05752037248751414,0.014564634128150632,0.04067136645089431,0.06484868025483459,0.020253681917247773,0.0014976365014181777,1506.7700032119599,1838.1710184877331,16.12,0.9999999999958511
4,1.0,0.06202118410625546,0.020566391333198764,0.03924368810387255,0.06223975365243991,0.019896985074352332,0.0014853072299987708,1472.2945583471576,1810.4092305505958,15.200000000000001,0.9999999999982465
5,1.1,0.0662633991614029,0.026694609957739493,0.037437263385113176,0.05859557324730691,0.01984782199410397,0.0014768070625112057,1448.6882210236397,1782.488581661847,14.51,0.9999999999989598
6,1.1999999999999995,0.07026868199272561,0.0325200536970979,0.03565189357109782,0.05486494891369616,0.01995745345471988,0.0014736211921946168,1431.6320171177695,1755.573167833255,13.98,0.9999999999992499
7,1.3000000000000003,0.07405634272972031,0.038100252160756576,0.033875041367130716,0.051096352062989236,0.02014304330797295,0.0014737300321790423,1418.2674190642954,1728.2639773942942,13.540000000000001,0.9999999999993935
8,1.3999999999999995,0.07764364861664726,0.04342312434731344,0.03214142249387327,0.04739057535251118,0.02036650545256427,0.0014755969326970526,1407.2912062349587,1700.3512461005148,13.200000000000001,0.9999999999994721
9,1.6000000000000005,0.08427758988601222,0.05329678969600595,0.028903491411687247,0.040435778066853625,0.020814369069214925,0.0014774035474151644,1388.9949739710887,1643.0631624300925,12.68,0.999999999999557
10,1.7999999999999998,0.09027684884714632,0.06215842518232261,0.026104768287615494,0.03442537959063632,0.021123783764798093,0.0014622812192239799,1371.5155557035168,1586.225832730026,12.3,0.999999999999636
11,2.0,0.09572834938139431,0.0700504192672945,0.023822780240087185,0.029583491694245855,0.021199529760261033,0.0014207186365328124,1351.9417090227369,1533.1772642778585,12.020000000000001,0.9999999999997405
12,2.2,0.10070383531597825,0.0770466931411752,0.022007484975850516,0.025866818569432463,0.021046482419448165,0.0013601485761531285,1329.7613700721113,1485.2521550446588,11.790000000000001,0.9999999999998427
13,2.4,0.10526304553491962,0.08326224422547301,0.02053621707252591,0.02301942078481513,0.020736926812151914,0.0012931837321600156,1306.2444547732669,1442.4029271119998,11.610000000000001,0.9999999999999143
14,2.6000000000000005,0.10945612414928066,0.088831665992367,0.019299085665004493,0.02076302995433564,0.02034378530288623,0.0012277961255406917,1282.884041250662,1404.0948274987977,11.47,0.9999999999999555
