This mechanism contains 38 gas reactions and 44 surface reactions
  distance(mm)   X_CH4        X_O2        X_H2       X_CO       X_H2O       X_CO2
    0.000000    0.042711    0.008214    0.000000   0.000000   0.000000   0.000000
    1.000000    0.042711    0.008214    0.000000   0.000000   0.000000   0.000000
    2.000000    0.042711    0.008214    0.000000   0.000000   0.000000   0.000000
    3.000000    0.042711    0.008214    0.000000   0.000000   0.000000   0.000000
    4.000000    0.042711    0.008214    0.000000   0.000000   0.000000   0.000000
    5.000000    0.042711    0.008214    0.000000   0.000000   0.000000   0.000000
    6.000000    0.042711    0.008214    0.000000   0.000000   0.000000   0.000000
    7.000000    0.042711    0.008214    0.000000   0.000000   0.000000   0.000000
    8.000000    0.042711    0.008214    0.000000   0.000000   0.000000   0.000000
    9.000000    0.042711    0.008214    0.000000   0.000000   0.000000   0.000000
   10.000000    0.042706    0.008202    0.000000   0.000000   0.000011   0.000006
   11.000000    0.042164    0.007120    0.000000   0.000001   0.001093   0.000546
   12.000000    0.041731    0.006255    0.000000   0.000003   0.001960   0.000977
   13.000000    0.041378    0.005552    0.000000   0.000009   0.002665   0.001324
   14.000000    0.041075    0.004952    0.000000   0.000019   0.003271   0.001616
   15.000000    0.040806    0.004422    0.000000   0.000034   0.003809   0.001870
   16.000000    0.040559    0.003938    0.000000   0.000056   0.004304   0.002096
   17.000000    0.040324    0.003483    0.000000   0.000085   0.004773   0.002301
   18.000000    0.040092    0.003042    0.000000   0.000124   0.005234   0.002492
   19.000000    0.039853    0.002599    0.000000   0.000177   0.005705   0.002674
   20.000000    0.039593    0.002135    0.000000   0.000253   0.006209   0.002848
   21.000000    0.039587    0.002135    0.000003   0.000253   0.006209   0.002848
   22.000000    0.039580    0.002135    0.000007   0.000253   0.006210   0.002848
   23.000000    0.039574    0.002135    0.000010   0.000253   0.006210   0.002848
   24.000000    0.039568    0.002135    0.000013   0.000253   0.006210   0.002848
   25.000000    0.039561    0.002135    0.000017   0.000253   0.006210   0.002848
   26.000000    0.039555    0.002135    0.000020   0.000253   0.006210   0.002848
   27.000000    0.039548    0.002135    0.000024   0.000253   0.006210   0.002848
   28.000000    0.039542    0.002135    0.000027   0.000253   0.006210   0.002848
   29.000000    0.039536    0.002135    0.000030   0.000253   0.006210   0.002848
   30.000000    0.039529    0.002135    0.000034   0.000253   0.006210   0.002848
   31.000000    0.039523    0.002135    0.000037   0.000253   0.006210   0.002848
   32.000000    0.039517    0.002135    0.000041   0.000253   0.006210   0.002848
   33.000000    0.039511    0.002135    0.000045   0.000253   0.006210   0.002848
   34.000000    0.039504    0.002135    0.000048   0.000253   0.006210   0.002848
   35.000000    0.039498    0.002135    0.000052   0.000253   0.006210   0.002848
   36.000000    0.039492    0.002135    0.000055   0.000253   0.006210   0.002848
   37.000000    0.039486    0.002135    0.000059   0.000253   0.006210   0.002848
   38.000000    0.039479    0.002135    0.000063   0.000253   0.006210   0.002848
   39.000000    0.039473    0.002135    0.000066   0.000253   0.006210   0.002848
   40.000000    0.039467    0.002135    0.000070   0.000253   0.006210   0.002848
   41.000000    0.039461    0.002135    0.000074   0.000253   0.006210   0.002848
   42.000000    0.039455    0.002135    0.000078   0.000253   0.006210   0.002848
   43.000000    0.039449    0.002135    0.000082   0.000253   0.006210   0.002848
   44.000000    0.039442    0.002135    0.000085   0.000253   0.006210   0.002848
   45.000000    0.039436    0.002135    0.000089   0.000253   0.006210   0.002848
   46.000000    0.039430    0.002135    0.000093   0.000253   0.006210   0.002848
   47.000000    0.039424    0.002135    0.000097   0.000253   0.006210   0.002848
   48.000000    0.039418    0.002135    0.000101   0.000253   0.006210   0.002848
   49.000000    0.039412    0.002135    0.000105   0.000253   0.006210   0.002848
   50.000000    0.039406    0.002135    0.000109   0.000253   0.006210   0.002848
   51.000000    0.039400    0.002135    0.000113   0.000253   0.006210   0.002848
   52.000000    0.039394    0.002135    0.000117   0.000253   0.006210   0.002848
   53.000000    0.039388    0.002135    0.000121   0.000253   0.006210   0.002848
   54.000000    0.039382    0.002135    0.000125   0.000253   0.006210   0.002848
   55.000000    0.039376    0.002135    0.000129   0.000253   0.006210   0.002848
   56.000000    0.039370    0.002135    0.000133   0.000253   0.006210   0.002848
   57.000000    0.039364    0.002135    0.000137   0.000253   0.006210   0.002848
   58.000000    0.039359    0.002135    0.000142   0.000253   0.006210   0.002848
   59.000000    0.039353    0.002135    0.000146   0.000253   0.006210   0.002848
   60.000000    0.039347    0.002135    0.000150   0.000253   0.006210   0.002848
   61.000000    0.039341    0.002135    0.000154   0.000253   0.006210   0.002848
   62.000000    0.039335    0.002135    0.000158   0.000253   0.006210   0.002848
   63.000000    0.039330    0.002135    0.000163   0.000253   0.006210   0.002848
   64.000000    0.039324    0.002135    0.000167   0.000253   0.006210   0.002848
   65.000000    0.039318    0.002135    0.000171   0.000253   0.006210   0.002848
   66.000000    0.039312    0.002135    0.000175   0.000253   0.006210   0.002848
   67.000000    0.039307    0.002135    0.000180   0.000253   0.006210   0.002848
   68.000000    0.039301    0.002135    0.000184   0.000253   0.006210   0.002848
   69.000000    0.039295    0.002135    0.000188   0.000253   0.006210   0.002848
   70.000000    0.039290    0.002135    0.000193   0.000253   0.006210   0.002848
Finished simulation at a C/O ratio of 2.6
  distance(mm)   X_CH4        X_O2        X_H2       X_CO       X_H2O       X_CO2
    0.000000    0.041075    0.008557    0.000000   0.000000   0.000000   0.000000
    1.000000    0.041075    0.008557    0.000000   0.000000   0.000000   0.000000
    2.000000    0.041075    0.008557    0.000000   0.000000   0.000000   0.000000
    3.000000    0.041075    0.008557    0.000000   0.000000   0.000000   0.000000
    4.000000    0.041075    0.008557    0.000000   0.000000   0.000000   0.000000
    5.000000    0.041075    0.008557    0.000000   0.000000   0.000000   0.000000
    6.000000    0.041075    0.008557    0.000000   0.000000   0.000000   0.000000
    7.000000    0.041075    0.008557    0.000000   0.000000   0.000000   0.000000
    8.000000    0.041075    0.008557    0.000000   0.000000   0.000000   0.000000
    9.000000    0.041075    0.008557    0.000000   0.000000   0.000000   0.000000
   10.000000    0.041070    0.008546    0.000000   0.000000   0.000011   0.000006
   11.000000    0.040536    0.007480    0.000000   0.000001   0.001077   0.000538
   12.000000    0.040107    0.006623    0.000000   0.000003   0.001935   0.000965
   13.000000    0.039756    0.005924    0.000000   0.000009   0.002637   0.001310
   14.000000    0.039455    0.005327    0.000000   0.000020   0.003240   0.001600
   15.000000    0.039186    0.004797    0.000000   0.000036   0.003778   0.001853
   16.000000    0.038937    0.004312    0.000000   0.000059   0.004275   0.002079
   17.000000    0.038699    0.003853    0.000000   0.000090   0.004750   0.002285
   18.000000    0.038462    0.003403    0.000000   0.000133   0.005221   0.002477
   19.000000    0.038212    0.002945    0.000000   0.000193   0.005711   0.002661
   20.000000    0.037933    0.002453    0.000000   0.000281   0.006250   0.002839
   21.000000    0.037924    0.002453    0.000005   0.000281   0.006250   0.002839
   22.000000    0.037915    0.002453    0.000009   0.000281   0.006250   0.002839
   23.000000    0.037906    0.002453    0.000014   0.000281   0.006250   0.002839
   24.000000    0.037897    0.002453    0.000019   0.000281   0.006250   0.002839
   25.000000    0.037889    0.002453    0.000024   0.000281   0.006250   0.002839
   26.000000    0.037880    0.002453    0.000028   0.000281   0.006250   0.002839
   27.000000    0.037871    0.002453    0.000033   0.000281   0.006250   0.002839
   28.000000    0.037862    0.002453    0.000038   0.000281   0.006250   0.002839
   29.000000    0.037853    0.002453    0.000043   0.000281   0.006250   0.002839
   30.000000    0.037844    0.002453    0.000048   0.000281   0.006250   0.002839
   31.000000    0.037836    0.002453    0.000053   0.000281   0.006250   0.002839
   32.000000    0.037827    0.002453    0.000058   0.000281   0.006250   0.002839
   33.000000    0.037818    0.002453    0.000063   0.000281   0.006250   0.002839
   34.000000    0.037809    0.002453    0.000069   0.000281   0.006250   0.002839
   35.000000    0.037801    0.002453    0.000074   0.000281   0.006250   0.002839
   36.000000    0.037792    0.002453    0.000079   0.000281   0.006250   0.002839
   37.000000    0.037784    0.002453    0.000084   0.000281   0.006250   0.002839
   38.000000    0.037775    0.002453    0.000090   0.000281   0.006250   0.002839
   39.000000    0.037767    0.002453    0.000095   0.000281   0.006250   0.002839
   40.000000    0.037758    0.002453    0.000101   0.000281   0.006250   0.002839
   41.000000    0.037750    0.002453    0.000106   0.000281   0.006250   0.002839
   42.000000    0.037741    0.002453    0.000112   0.000281   0.006250   0.002839
   43.000000    0.037733    0.002453    0.000117   0.000281   0.006250   0.002839
   44.000000    0.037725    0.002453    0.000123   0.000281   0.006250   0.002839
   45.000000    0.037716    0.002453    0.000128   0.000281   0.006250   0.002839
   46.000000    0.037708    0.002453    0.000134   0.000281   0.006250   0.002839
   47.000000    0.037700    0.002453    0.000140   0.000281   0.006250   0.002839
   48.000000    0.037692    0.002453    0.000146   0.000281   0.006250   0.002839
   49.000000    0.037683    0.002453    0.000151   0.000281   0.006250   0.002839
   50.000000    0.037675    0.002453    0.000157   0.000281   0.006250   0.002839
   51.000000    0.037667    0.002453    0.000163   0.000281   0.006250   0.002839
   52.000000    0.037659    0.002453    0.000169   0.000281   0.006250   0.002839
   53.000000    0.037651    0.002453    0.000175   0.000281   0.006250   0.002839
   54.000000    0.037643    0.002453    0.000181   0.000281   0.006250   0.002839
   55.000000    0.037635    0.002453    0.000187   0.000281   0.006250   0.002839
   56.000000    0.037627    0.002453    0.000193   0.000281   0.006250   0.002839
   57.000000    0.037619    0.002453    0.000199   0.000281   0.006250   0.002839
   58.000000    0.037611    0.002453    0.000205   0.000281   0.006250   0.002839
   59.000000    0.037604    0.002453    0.000211   0.000281   0.006250   0.002839
   60.000000    0.037596    0.002453    0.000217   0.000281   0.006250   0.002839
   61.000000    0.037588    0.002453    0.000223   0.000281   0.006250   0.002839
   62.000000    0.037581    0.002453    0.000229   0.000281   0.006250   0.002839
   63.000000    0.037573    0.002453    0.000235   0.000281   0.006250   0.002839
   64.000000    0.037565    0.002453    0.000241   0.000281   0.006250   0.002839
   65.000000    0.037558    0.002453    0.000247   0.000281   0.006250   0.002839
   66.000000    0.037550    0.002453    0.000253   0.000281   0.006250   0.002839
   67.000000    0.037543    0.002453    0.000259   0.000281   0.006250   0.002839
   68.000000    0.037535    0.002453    0.000265   0.000281   0.006250   0.002839
   69.000000    0.037528    0.002453    0.000272   0.000281   0.006250   0.002839
   70.000000    0.037520    0.002453    0.000278   0.000281   0.006250   0.002839
Finished simulation at a C/O ratio of 2.4
  distance(mm)   X_CH4        X_O2        X_H2       X_CO       X_H2O       X_CO2
    0.000000    0.039296    0.008931    0.000000   0.000000   0.000000   0.000000
    1.000000    0.039296    0.008931    0.000000   0.000000   0.000000   0.000000
    2.000000    0.039296    0.008931    0.000000   0.000000   0.000000   0.000000
    3.000000    0.039296    0.008931    0.000000   0.000000   0.000000   0.000000
    4.000000    0.039296    0.008931    0.000000   0.000000   0.000000   0.000000
    5.000000    0.039296    0.008931    0.000000   0.000000   0.000000   0.000000
    6.000000    0.039296    0.008931    0.000000   0.000000   0.000000   0.000000
    7.000000    0.039296    0.008931    0.000000   0.000000   0.000000   0.000000
    8.000000    0.039296    0.008931    0.000000   0.000000   0.000000   0.000000
    9.000000    0.039296    0.008931    0.000000   0.000000   0.000000   0.000000
   10.000000    0.039291    0.008920    0.000000   0.000000   0.000011   0.000005
   11.000000    0.038767    0.007873    0.000000   0.000001   0.001058   0.000528
   12.000000    0.038343    0.007028    0.000000   0.000003   0.001905   0.000949
   13.000000    0.037996    0.006336    0.000000   0.000009   0.002600   0.001291
   14.000000    0.037697    0.005743    0.000000   0.000020   0.003198   0.001579
   15.000000    0.037429    0.005215    0.000000   0.000037   0.003734   0.001830
   16.000000    0.037180    0.004730    0.000000   0.000061   0.004231   0.002054
   17.000000    0.036940    0.004269    0.000000   0.000094   0.004709   0.002260
   18.000000    0.036698    0.003813    0.000000   0.000141   0.005189   0.002453
   19.000000    0.036439    0.003340    0.000000   0.000207   0.005697   0.002639
   20.000000    0.036139    0.002819    0.000000   0.000309   0.006272   0.002820
   21.000000    0.036127    0.002819    0.000007   0.000309   0.006272   0.002820
   22.000000    0.036115    0.002819    0.000013   0.000309   0.006272   0.002820
   23.000000    0.036102    0.002819    0.000020   0.000309   0.006272   0.002820
   24.000000    0.036090    0.002819    0.000026   0.000309   0.006272   0.002820
   25.000000    0.036078    0.002819    0.000033   0.000309   0.006272   0.002820
   26.000000    0.036066    0.002819    0.000040   0.000309   0.006272   0.002820
   27.000000    0.036054    0.002819    0.000046   0.000309   0.006272   0.002820
   28.000000    0.036042    0.002819    0.000053   0.000309   0.006273   0.002820
   29.000000    0.036030    0.002819    0.000060   0.000309   0.006273   0.002820
   30.000000    0.036018    0.002819    0.000067   0.000309   0.006273   0.002820
   31.000000    0.036006    0.002819    0.000074   0.000309   0.006273   0.002820
   32.000000    0.035994    0.002819    0.000082   0.000309   0.006273   0.002820
   33.000000    0.035982    0.002819    0.000089   0.000309   0.006273   0.002820
   34.000000    0.035971    0.002819    0.000096   0.000309   0.006273   0.002820
   35.000000    0.035959    0.002819    0.000104   0.000309   0.006273   0.002820
   36.000000    0.035947    0.002819    0.000111   0.000309   0.006273   0.002820
   37.000000    0.035936    0.002819    0.000119   0.000309   0.006273   0.002820
   38.000000    0.035924    0.002819    0.000126   0.000309   0.006273   0.002820
   39.000000    0.035913    0.002819    0.000134   0.000309   0.006273   0.002820
   40.000000    0.035902    0.002819    0.000142   0.000309   0.006273   0.002820
   41.000000    0.035891    0.002819    0.000149   0.000309   0.006273   0.002820
   42.000000    0.035879    0.002819    0.000157   0.000309   0.006273   0.002820
   43.000000    0.035868    0.002819    0.000165   0.000309   0.006273   0.002820
   44.000000    0.035857    0.002819    0.000173   0.000309   0.006273   0.002820
   45.000000    0.035846    0.002819    0.000181   0.000309   0.006273   0.002820
   46.000000    0.035835    0.002819    0.000189   0.000309   0.006273   0.002820
   47.000000    0.035825    0.002819    0.000197   0.000309   0.006273   0.002820
   48.000000    0.035814    0.002819    0.000205   0.000309   0.006273   0.002820
   49.000000    0.035803    0.002819    0.000214   0.000309   0.006273   0.002820
   50.000000    0.035793    0.002819    0.000222   0.000309   0.006273   0.002820
   51.000000    0.035782    0.002819    0.000230   0.000309   0.006273   0.002820
   52.000000    0.035772    0.002819    0.000238   0.000309   0.006273   0.002820
   53.000000    0.035761    0.002819    0.000246   0.000309   0.006273   0.002820
   54.000000    0.035751    0.002819    0.000255   0.000309   0.006273   0.002820
   55.000000    0.035741    0.002819    0.000263   0.000309   0.006273   0.002820
   56.000000    0.035730    0.002819    0.000271   0.000309   0.006273   0.002820
   57.000000    0.035720    0.002819    0.000280   0.000309   0.006273   0.002820
   58.000000    0.035710    0.002819    0.000288   0.000309   0.006273   0.002820
   59.000000    0.035700    0.002819    0.000296   0.000309   0.006273   0.002820
   60.000000    0.035690    0.002819    0.000305   0.000309   0.006273   0.002820
   61.000000    0.035681    0.002819    0.000313   0.000309   0.006273   0.002820
   62.000000    0.035671    0.002819    0.000321   0.000309   0.006273   0.002820
   63.000000    0.035661    0.002819    0.000330   0.000309   0.006273   0.002820
   64.000000    0.035652    0.002819    0.000338   0.000309   0.006273   0.002820
   65.000000    0.035642    0.002819    0.000346   0.000309   0.006273   0.002820
   66.000000    0.035633    0.002819    0.000355   0.000309   0.006273   0.002820
   67.000000    0.035623    0.002819    0.000363   0.000309   0.006273   0.002820
   68.000000    0.035614    0.002819    0.000371   0.000309   0.006273   0.002820
   69.000000    0.035605    0.002819    0.000380   0.000309   0.006273   0.002820
   70.000000    0.035595    0.002819    0.000388   0.000309   0.006273   0.002820
Finished simulation at a C/O ratio of 2.2
  distance(mm)   X_CH4        X_O2        X_H2       X_CO       X_H2O       X_CO2
    0.000000    0.025857    0.011753    0.000000   0.000000   0.000000   0.000000
    1.000000    0.025857    0.011753    0.000000   0.000000   0.000000   0.000000
    2.000000    0.025857    0.011753    0.000000   0.000000   0.000000   0.000000
    3.000000    0.025857    0.011753    0.000000   0.000000   0.000000   0.000000
    4.000000    0.025857    0.011753    0.000000   0.000000   0.000000   0.000000
    5.000000    0.025857    0.011753    0.000000   0.000000   0.000000   0.000000
    6.000000    0.025857    0.011753    0.000000   0.000000   0.000000   0.000000
    7.000000    0.025857    0.011753    0.000000   0.000000   0.000000   0.000000
    8.000000    0.025857    0.011753    0.000000   0.000000   0.000000   0.000000
    9.000000    0.025857    0.011753    0.000000   0.000000   0.000000   0.000000
   10.000000    0.025853    0.011745    0.000000   0.000000   0.000008   0.000004
   11.000000    0.025443    0.010925    0.000000   0.000000   0.000828   0.000414
   12.000000    0.025092    0.010225    0.000000   0.000002   0.001529   0.000762
   13.000000    0.024799    0.009641    0.000000   0.000007   0.002116   0.001051
   14.000000    0.024543    0.009134    0.000000   0.000016   0.002627   0.001298
   15.000000    0.024311    0.008677    0.000000   0.000031   0.003091   0.001515
   16.000000    0.024093    0.008252    0.000000   0.000053   0.003527   0.001711
   17.000000    0.023879    0.007842    0.000000   0.000085   0.003954   0.001892
   18.000000    0.023656    0.007425    0.000000   0.000132   0.004395   0.002064
   19.000000    0.023406    0.006975    0.000000   0.000205   0.004884   0.002233
   20.000000    0.023084    0.006436    0.000000   0.000333   0.005492   0.002405
   21.000000    0.023069    0.006436    0.000009   0.000333   0.005492   0.002405
   22.000000    0.023053    0.006436    0.000017   0.000333   0.005492   0.002405
   23.000000    0.023037    0.006436    0.000026   0.000333   0.005492   0.002405
