,C/O ratio,CH4 in,CH4 out,CO out,H2 out,H2O out,CO2 out,Exit temp,Max temp,Dist to max temp,O2 conv
0,0.6000000000000001,0.04220610931192466,3.172785522744575e-05,0.037913989064105535,0.05981515039212892,0.024305226197352554,0.00406120599831988,1826.7368425967964,1956.495998596856,12.560000000000002,0.9999999937656924
1,0.7000000000000002,0.04764223879568619,0.0009015700537522589,0.04249991117480066,0.07455016755330506,0.018310695243838947,0.0036248022787843683,1585.7282088431964,1908.4592075428718,12.020000000000001,0.9999999999841077
2,0.8,0.05273657570711542,0.0057423947571535626,0.04285037243043226,0.07742404835977623,0.015967316410405805,0.0035514272396810617,1483.0000881191672,1872.4972536766898,11.670000000000002,0.9999999999991611
3,0.8999999999999999,0.05752037248751414,0.011790501520411521,0.04163415684517346,0.07587238608872868,0.01508173300969064,0.0035976956377734523,1433.6960874530773,1841.787581648173,11.430000000000001,0.9999999999998019
4,1.0,0.06202118410625546,0.017892546592913082,0.04005789069592976,0.0732167387656962,0.014628421531853324,0.0036739513908622245,1401.6052347561138,1813.4355482645872,11.260000000000002,0.9999999999999221
5,1.1,0.0662633991614029,0.023823010328718513,0.038382829387652265,0.0702255880583559,0.014339656880053992,0.003758378092877125,1376.9975765185472,1786.5878052283679,11.120000000000001,0.9999999999999617
6,1.1999999999999995,0.07026868199272561,0.02945672796676518,0.036748741427507066,0.06726089070415348,0.01412237891418833,0.0038429843471628014,1356.4185867737224,1760.0613823857773,11.02,0.9999999999999788
7,1.3000000000000003,0.07405634272972031,0.03477327760534075,0.03519473916467318,0.06443448069922345,0.013940525433222502,0.003924764532130616,1338.380551070579,1733.7885882621488,10.94,0.9999999999999876
8,1.3999999999999995,0.07764364861664726,0.039835714168573164,0.033695067918731815,0.06172025442789751,0.013761531188108156,0.004001577684659633,1321.6412099117795,1706.9248174721645,10.870000000000001,0.9999999999999923
9,1.6000000000000003,0.08427758988601221,0.04909266885054026,0.030993376483555723,0.056894259481911985,0.013404297342866406,0.0041378922265170055,1291.3364671498064,1652.8212033975399,10.780000000000001,0.999999999999997
10,1.7999999999999998,0.09027684884714632,0.05737156757868053,0.028627862420172824,0.05274361821430206,0.01302843770413783,0.004250492695854291,1264.0075450729364,1599.7777341487058,10.700000000000001,0.9999999999999988
11,2.0,0.09572834938139431,0.06483696948983672,0.026535483697865063,0.04911866742205172,0.012644170096791644,0.004342256467624321,1239.2714885424425,1550.0158470022036,10.64,0.9999999999999994
12,2.2,0.10070383531597825,0.0716159226365766,0.024662629401686065,0.045888979510649366,0.01227596072942732,0.004417938094829235,1217.224574472044,1504.7712875729628,10.6,0.9999999999999997
13,2.4,0.10526304553491962,0.07785019259928716,0.02289938042100864,0.04276695385026513,0.012018838533126566,0.0044919844013885666,1199.7990277508732,1464.7380503786012,10.560000000000002,0.9999999999999999
14,2.6000000000000005,0.10945612414928066,0.08432073312647072,0.020456996146411378,0.0377872490597366,0.012419545091792019,0.004645395621420263,1199.797145523259,1428.5538005470635,10.520000000000001,0.9999999999999999
