,C/O ratio,CH4 in,CH4 out,CO out,H2 out,H2O out,CO2 out,Exit temp,Max temp,Dist to max temp,O2 conv
0,0.6000000000000001,0.04220610931192466,5.5356168217290856e-05,0.04024913797447417,0.056889850613109465,0.02701914174582545,0.0015366043387259182,1820.5832455543398,1952.2610617574624,15.510000000000002,0.9999999925234467
1,0.7000000000000002,0.04764223879568619,0.0017472355505024461,0.043124914459004196,0.0686325042146313,0.021898387483424302,0.0015183787703593032,1612.1058519449098,1906.2049377466683,14.360000000000001,0.9999999999541177
2,0.8,0.05273657570711542,0.006955342148202378,0.042123795712034874,0.06869028862433331,0.020735499295047328,0.0015305186692945076,1532.492393698066,1872.2012074177655,13.590000000000002,0.999999999994049
3,0.9000000000000001,0.05752037248751414,0.01307285742084275,0.0402916519651902,0.0657659606034864,0.020511223278729746,0.0015543053627688848,1491.6377840254956,1843.2030268514363,13.040000000000001,0.9999999999977521
4,1.0,0.06202118410625546,0.019253847383889872,0.03842255666015928,0.062219324404605945,0.020512758288171982,0.0015842145800135715,1465.6166869269537,1817.280643358819,12.63,0.9999999999987241
5,1.1,0.0662633991614029,0.025415106168985405,0.03656090839176176,0.05840092956941983,0.02056249946667182,0.0016169225700239827,1446.7866371455277,1792.2516930245647,12.310000000000002,0.9999999999991166
6,1.1999999999999995,0.07026868199272561,0.03160680642537163,0.03466468911741564,0.05433534466150018,0.020591290985506768,0.001651221942376448,1431.8623287044322,1766.9549875192993,12.07,0.9999999999993161
7,1.3000000000000003,0.07405634272972031,0.03725512097098562,0.03310007935506515,0.050830071761804645,0.020652272254496666,0.0016875038070238147,1420.9598520858597,1743.641954336564,11.870000000000001,0.9999999999994149
8,1.3999999999999995,0.07764364861664726,0.04295229142640844,0.031441434894444585,0.04706437396417673,0.0206816037785518,0.001725271497500675,1411.6508574702468,1718.217801264881,11.72,0.9999999999994703
9,1.6000000000000005,0.08427758988601222,0.05352680949730313,0.028176826441018297,0.03971587611763844,0.020891760652370066,0.0018018959486336384,1397.5396616398455,1665.1118133727473,11.49,0.9999999999994864
10,1.7999999999999998,0.09027684884714632,0.06265736858958268,0.024871219035826873,0.03268613269411372,0.02151846991103236,0.001881478047884042,1388.0405174438338,1611.5232548696754,11.330000000000002,0.9999999999993752
11,2.0,0.09572834938139431,0.07095045055313125,0.0218702966724625,0.026314434411315868,0.02207588435715234,0.001958396914879678,1379.9493586990495,1559.1956744331922,11.21,0.9999999999991807
12,2.2,0.10070383531597825,0.0784454079029999,0.019292208675840333,0.020905233211028745,0.022421808936829463,0.0020296739244990906,1370.3676678577185,1510.7499895959015,11.120000000000001,0.9999999999989936
13,2.4,0.10526304553491962,0.08517671270373899,0.017208239051854507,0.016665485163874397,0.022466232308945636,0.0020921297627264613,1357.2987543281017,1466.983029939481,11.040000000000001,0.9999999999989747
14,2.6000000000000005,0.10945612414928066,0.09116655572219226,0.015588718355907409,0.013593678580912842,0.022218443808822774,0.0021453444546563867,1340.1815185251464,1427.7470523610016,10.98,0.9999999999991731
