,C/O ratio,CH4 in,CH4 out,CO out,H2 out,H2O out,CO2 out,Exit temp,Max temp,Dist to max temp,O2 conv
0,0.6000000000000001,0.04220610931192466,0.0008380539286871919,0.025070954402390783,0.041262917080763406,0.03182194196344084,0.00672133876173461,1920.665140035391,1957.785718456636,12.63,0.9999999137233957
1,0.7000000000000002,0.04764223879568619,0.002401430304256606,0.024021548263225716,0.04562100616781312,0.030407832926180708,0.00681618308528595,1800.5232463106395,1914.7740709903492,12.090000000000002,0.9999467036628438
2,0.8,0.05273657570711542,0.010544666516859145,0.013656592745136654,0.03407631385312596,0.028615218368426308,0.006894128605131824,1625.4210022566174,1882.758557868808,11.73,0.8504571746707242
3,0.8999999999999999,0.05752037248751414,0.014893898224156309,0.01271312917815258,0.03352351515569388,0.028717635114429364,0.006965605589489903,1588.2051865570097,1855.9815482894376,11.48,0.8662738812710065
4,1.0,0.06202118410625546,0.019862808961516907,0.011090794124318088,0.031353069032871356,0.02884508659730344,0.007033018626053518,1555.3503050718712,1831.293384562939,11.290000000000001,0.8707532082104513
5,1.1,0.0662633991614029,0.02385717813187775,0.0113376302768123,0.031919626165828,0.028818708758246225,0.007094278788267426,1538.6160435649595,1808.9236589402867,11.160000000000002,0.9022029995668077
6,1.1999999999999995,0.07026868199272561,0.02863312392272346,0.010273939411780614,0.030079958286630556,0.028853267564507862,0.007149493803839686,1518.7196971301867,1787.3700186559365,11.05,0.9123384760267886
7,1.2999999999999998,0.0740563427297203,0.033035097020345794,0.009920788025121058,0.029234398846747903,0.02875694964947226,0.007196523965776932,1504.698461416084,1765.7190494904262,10.97,0.9316800701661944
8,1.3999999999999995,0.07764364861664726,0.03745857139936118,0.009582204387938668,0.0282450717782249,0.028585702785198,0.007235499702303467,1492.5197971511382,1744.2951173087733,10.900000000000002,0.9492057925375182
9,1.6000000000000003,0.08427758988601221,0.04649168621821778,0.008701012052784618,0.025484322932439924,0.028058431626236786,0.007285864676666914,1471.2286336851232,1700.1077316801127,10.81,0.9745744438365627
10,1.7999999999999998,0.09027684884714632,0.05563860354723174,0.007736548877802884,0.022085715787257085,0.02728974087053767,0.00729508548928642,1453.1992623115789,1653.6923281287693,10.76,0.98936465090687
11,2.0,0.09572834938139431,0.07020389410893167,0.017583207007215794,0.03419612275846388,0.015919352814988155,0.007180470217099775,1376.401138514763,1605.8359972179073,10.730000000000002,0.9999999999998506
12,2.2000000000000006,0.10070383531597826,0.07786886793214765,0.014844126484946782,0.02792796415004065,0.0166659801498482,0.007131832557430842,1371.487322853158,1558.6365293159786,10.71,0.9999999999997744
13,2.4,0.10526304553491962,0.08482448913702657,0.012498939354901713,0.022478175721812023,0.01725792005842144,0.007051033026179933,1365.006972934586,1514.118013291846,10.690000000000001,0.9999999999996794
14,2.6,0.10945612414928066,0.09110486739872035,0.010601649304551982,0.018034664672794454,0.01760324763872363,0.006946531632929632,1355.4137649523373,1473.275087343932,10.68,0.9999999999996105
