,C/O ratio,CH4 in,CH4 out,CO out,H2 out,H2O out,CO2 out,Exit temp,Max temp,Dist to max temp,O2 conv
0,0.6000000000000001,0.04220610931192466,0.00011166704174721671,0.03726391971551523,0.05863315601989151,0.024821343563580546,0.0041280581016493855,1834.719396007603,1955.4812206251981,12.59,0.9999999924190648
1,0.7000000000000002,0.04764223879568619,0.0008655368463492645,0.042453627592881654,0.07449989007983183,0.01835558958679994,0.003631824568822216,1586.2542346230732,1906.6455864329662,12.050000000000002,0.9999999999838286
2,0.8,0.05273657570711542,0.005631054678422698,0.04296692272226686,0.07774864589951067,0.01586413884424773,0.0035447545237845958,1479.8316618044335,1869.9147209185323,11.700000000000001,0.9999999999992476
3,0.8999999999999999,0.05752037248751414,0.011603984990903975,0.04185986155550754,0.07646181537163392,0.014888656635745364,0.0035814136756836808,1428.1639044033734,1838.375488111464,11.45,0.9999999999998389
4,1.0,0.06202118410625546,0.017641797390882223,0.0403704988771618,0.07403327409046181,0.01435404710039774,0.0036482391711956264,1393.8685482385326,1809.3427692187822,11.270000000000001,0.9999999999999424
5,1.1,0.0662633991614029,0.023472704646513104,0.03880562060703756,0.07131603664890515,0.013988339433038337,0.003722698863151793,1367.213774400665,1781.5713294296384,11.14,0.9999999999999742
6,1.1999999999999995,0.07026868199272561,0.029024869339612548,0.037262392169350005,0.06858609667190191,0.013699957183231542,0.0037973915152679704,1344.743304629148,1754.1370497460578,11.030000000000001,0.9999999999999871
7,1.2999999999999998,0.0740563427297203,0.03428582463820904,0.0357766228812606,0.0659472318376949,0.013451059996724243,0.00386935329425192,1324.9260932755767,1726.8598110996793,10.950000000000001,0.999999999999993
8,1.3999999999999995,0.07764364861664726,0.03924705231969686,0.034379304235355096,0.063486041492043,0.013208917362532763,0.003935740206789962,1306.5752001174717,1699.3266622219057,10.89,0.9999999999999961
9,1.6000000000000005,0.08427758988601222,0.0483686446914659,0.03182271970142836,0.0590281156240099,0.012745471142997932,0.0040526261318942795,1273.6388324241698,1643.8668147711396,10.790000000000001,0.9999999999999987
10,1.7999999999999998,0.09027684884714632,0.05654297327859588,0.02957193568895746,0.055160425692329616,0.012286945643270139,0.0041474457203405785,1244.389712179917,1590.0532674377312,10.71,0.9999999999999996
11,2.0,0.09572834938139431,0.06392073932761676,0.02757768556739148,0.0517650736362864,0.011840230705760487,0.004223122867030137,1218.3113142664631,1540.2450021642098,10.650000000000002,0.9999999999999999
12,2.2000000000000006,0.10070383531597826,0.0706269224924512,0.02579005589658327,0.04873146661149905,0.011417449409774166,0.004283494901099509,1195.1219124888855,1495.2710494387584,10.6,1.0
13,2.4,0.10526304553491962,0.07676465326538419,0.024164178140404637,0.045963628368263426,0.011030521864709505,0.004332449787349646,1174.6440925421227,1454.9882576250097,10.560000000000002,1.0
14,2.6,0.10945612414928066,0.08240830202099839,0.022674741067871776,0.043414847082249144,0.010679455732162703,0.004372154114854484,1156.5057103506529,1418.8595767500528,10.530000000000001,1.0
