,C/O ratio,CH4 in,CH4 out,CO out,H2 out,H2O out,CO2 out,Exit temp,Max temp,Dist to max temp,O2 conv
0,0.6000000000000001,0.04220610931192466,1.7524766662297798e-05,0.03802818910255054,0.060025060664932316,0.0242131242435503,0.004050356458545368,1825.3009067496068,1931.070934321891,12.76,0.999999993978511
1,0.7000000000000002,0.04764223879568619,0.00026791616169095,0.043578823743175454,0.07707666881001736,0.017411597446523226,0.0035430874324644517,1561.9115570463855,1869.0107650555035,12.21,0.999999999992374
2,0.8,0.05273657570711542,0.002881305056901942,0.046430749288166574,0.08655367447246151,0.012984421619596639,0.0032528101723901994,1393.8525650936583,1820.039065384009,11.860000000000001,0.9999999999999669
3,0.8999999999999999,0.05752037248751414,0.007157977213588301,0.04719337329400232,0.090062789395145,0.010567616109747758,0.0030751361549274762,1297.1559271780818,1775.670855177571,11.620000000000001,0.9999999999999991
4,1.0,0.06202118410625546,0.012091805538580466,0.04692976534342279,0.09063450953885593,0.0091797877669203,0.0029557741760092376,1236.5943517130104,1733.2329677288244,11.45,0.9999999999999999
5,1.1,0.0662633991614029,0.01736282359675352,0.0459928954810632,0.08929433261761706,0.008481600805969372,0.0028884641625939503,1199.8163799096478,1691.7308228732825,11.32,1.0
6,1.1999999999999995,0.07026868199272561,0.022409357003545228,0.045026717198785975,0.0878280026315889,0.007882708478225463,0.002823266054432447,1167.9859398169253,1651.292271224118,11.22,1.0
7,1.2999999999999998,0.0740563427297203,0.02746292140162355,0.04380036981429706,0.08557279402513945,0.007601708225899131,0.0027878829502604066,1147.2675132722652,1612.938548892121,11.14,1.0
8,1.3999999999999995,0.07764364861664726,0.03238806744165446,0.04248869207627296,0.08306498211655568,0.007443927881451058,0.002762822535674816,1131.234019455033,1576.7569743977883,11.070000000000002,1.0
9,1.6000000000000003,0.08427758988601221,0.04167355250503828,0.039872687954212824,0.07786759284519604,0.007341704421586391,0.0027283002600503843,1108.1383674648944,1512.3997938461657,10.97,1.0
10,1.7999999999999998,0.09027684884714632,0.05016282695462624,0.03741154103540477,0.07283756344220195,0.007370774144989053,0.002698414837162623,1091.5749754687158,1457.8264393283812,10.900000000000002,1.0
11,2.0,0.09572834938139431,0.057992185113221274,0.03506684936997726,0.06800021029106001,0.007469505212016922,0.0026665419794881197,1078.6795230579098,1410.4590591487527,10.860000000000001,1.0
12,2.2000000000000006,0.10070383531597826,0.06510808941623955,0.03296207165841608,0.06356673524239174,0.0075892253583621895,0.0026307207389458694,1068.223754257615,1369.9795888365431,10.820000000000002,1.0
13,2.4,0.10526304553491962,0.07165807285001907,0.031007693753103097,0.05943323163997808,0.00772363560630115,0.0025913895249692533,1059.3367866505698,1334.4076753150005,10.8,1.0
14,2.6,0.10945612414928066,0.07777089229673118,0.02913656528458783,0.05550699604806712,0.007864665646155887,0.0025482257171045657,1051.356205860668,1301.9953486262534,10.790000000000001,1.0
