,C/O ratio,CH4 in,CH4 out,CO out,H2 out,H2O out,CO2 out,Exit temp,Max temp,Dist to max temp,O2 conv
0,0.6000000000000001,0.04220610931192466,0.00027758068036219224,0.03485919795643892,0.05732131463067992,0.024778686640977023,0.005351489199511976,1853.3989156255122,1954.0059087873321,12.88,0.9999999903788849
1,0.7000000000000002,0.04764223879568619,0.0010072179028250377,0.03186288509345813,0.058438660379703765,0.025427713950246535,0.00538447494465585,1715.915122450925,1911.523420510136,12.3,0.9999999994123485
2,0.8,0.05273657570711542,0.003961169833861537,0.028277472496221298,0.055651239096759154,0.026803522355434047,0.005419428686410959,1644.4397509820453,1879.350063207355,11.91,0.999999999868186
3,0.8999999999999999,0.05752037248751414,0.00940647753683834,0.02257739842732087,0.04571948928446948,0.03039060493942286,0.0054619502968159045,1642.534730448801,1852.4203760078328,11.64,0.9997275581499354
4,1.0,0.06202118410625546,0.013974228509603242,0.01937741414731274,0.041359398746860065,0.03149960623237095,0.005493354674463638,1606.3635565636296,1827.6087708071884,11.440000000000001,0.9974653931426803
5,1.1,0.0662633991614029,0.018972279008624207,0.017343196824646172,0.03841188309123952,0.03166908790614572,0.005522178580846128,1572.4782774505593,1804.3973503154036,11.28,0.9970177260707582
6,1.1999999999999995,0.07026868199272561,0.02451673646578588,0.016287903666067017,0.03639373244227755,0.031096631240125374,0.005548114965986071,1543.8768495152733,1781.8196347029339,11.160000000000002,0.9987517100291317
7,1.2999999999999998,0.0740563427297203,0.03201435172663939,0.019660472712007066,0.040976320137293715,0.026186953970253425,0.005558385756428489,1488.8803598314978,1759.5513148049506,11.070000000000002,0.9999999999904648
8,1.3999999999999995,0.07764364861664726,0.03663161986969189,0.013520425815939225,0.030218085127115425,0.02974317143707797,0.00559004394232618,1496.4585118062473,1736.9941559976057,11.000000000000002,0.9817475741110478
9,1.6000000000000003,0.08427758988601221,0.04640085125852037,0.01135312524336686,0.02517229134835543,0.029407537182095208,0.005622082664000449,1470.7984387811102,1692.1838423840088,10.89,0.9847280832826414
10,1.7999999999999998,0.09027684884714632,0.05595561574305038,0.010211970764153583,0.021296599245670615,0.02851869933377712,0.005623342672688315,1451.6388546382436,1643.5496141541146,10.830000000000002,0.9943958751994184
11,2.0,0.09572834938139431,0.07042117936586018,0.018937173344650397,0.03185433988899867,0.017779930448936807,0.005573151881064206,1376.9350251100107,1592.6449498109973,10.790000000000001,0.9999999999997824
12,2.2000000000000006,0.10070383531597826,0.07806271718899033,0.01620721147900014,0.025688685852982323,0.018476209051977725,0.005545119852464261,1371.5123640631737,1544.6309304003337,10.77,0.9999999999996744
13,2.4,0.10526304553491962,0.08497212015933549,0.013910452002860937,0.02048554924552224,0.01895385644283038,0.005497276717096379,1363.7291982801873,1500.0080004608772,10.740000000000002,0.9999999999995607
14,2.6,0.10945612414928066,0.09118345624587543,0.012089260036812415,0.01640184348613914,0.019139553963566078,0.00543457831988802,1352.1956651800942,1459.4610068608279,10.72,0.999999999999515
