,C/O ratio,CH4 in,CH4 out,CO out,H2 out,H2O out,CO2 out,Exit temp,Max temp,Dist to max temp,O2 conv
0,0.6000000000000001,0.04220610931192466,3.613736251596168e-05,0.035856353090125005,0.06181675765071467,0.022280534674528802,0.006102396167706496,1834.0033526454392,1960.829356724417,12.64,0.9999999943850162
1,0.7000000000000002,0.04764223879568619,0.0008918448302642393,0.03957030876515686,0.07713661922971252,0.015616045713877333,0.006437194108877064,1597.7591772673882,1916.1921701236406,12.090000000000002,0.9999999999858001
2,0.8,0.05273657570711542,0.0058924685592519925,0.039486768095842034,0.07965912709604159,0.01325537079807422,0.00658921040157217,1501.0959818220035,1883.709052724823,11.73,0.9999999999991442
3,0.8999999999999999,0.05752037248751414,0.013034772993602813,0.01849641035155154,0.04286901425578898,0.02718546230147262,0.0071268335021028,1615.2899546709903,1856.5529944602406,11.47,0.9378255326646306
4,1.0,0.06202118410625546,0.01793730712589788,0.01619627289016284,0.03981120358145001,0.027583394235565824,0.007184002827729913,1578.0992528349245,1832.2119735078045,11.290000000000001,0.9375877456404859
5,1.1,0.0662633991614029,0.022801085072142097,0.014589144318516495,0.03740741780391947,0.027791534500586083,0.007235900806028263,1550.7761760850165,1809.3038813609064,11.15,0.9438228627032315
6,1.1999999999999995,0.07026868199272561,0.02754662279264494,0.014318983177371044,0.03673323848820885,0.02747906873108604,0.007278783973794869,1531.5204325364193,1786.9061286485721,11.05,0.9624536090631058
7,1.3000000000000003,0.07405634272972031,0.0367515131997707,0.029829392710792792,0.06087373811414297,0.013187902729371337,0.006974373409282137,1401.630249740265,1765.2484258468442,10.96,0.9999999999999051
8,1.3999999999999995,0.07764364861664726,0.04224529094204173,0.027878474081552255,0.0567118544793408,0.013530100343890374,0.00702538272514552,1395.2579129669061,1743.3769276396488,10.900000000000002,0.9999999999999027
9,1.6000000000000003,0.08427758988601221,0.05246123557061402,0.02417835485978456,0.0487208152048118,0.01428655200528512,0.00710403403196261,1386.1622254856804,1698.2299301675325,10.81,0.9999999999998832
10,1.7999999999999998,0.09027684884714632,0.06172031409567215,0.020789460499391822,0.041302211987581675,0.015065271088704325,0.0071492644525946395,1379.5953981604216,1650.833381490361,10.76,0.9999999999998448
11,2.0,0.09572834938139431,0.07013334588232803,0.0177163240834662,0.03448035855974384,0.015824365134424947,0.007161441085758869,1374.270522203472,1602.2672507156042,10.72,0.9999999999997811
12,2.2,0.10070383531597825,0.0777660958406035,0.015011660993226992,0.02839974025573524,0.016482710496845455,0.0071397385692195114,1368.4223995652958,1554.8381887626706,10.700000000000001,0.9999999999996971
13,2.4,0.10526304553491962,0.08466546960847374,0.01274147861806654,0.023240711893601867,0.016950527170834607,0.007083520106711955,1360.325674790404,1510.41148689147,10.68,0.9999999999996243
14,2.6000000000000005,0.10945612414928066,0.09086777058905522,0.01093733462778784,0.019123893809323462,0.017170583704291236,0.006995093539345085,1348.7924966735973,1469.8286195642802,10.650000000000002,0.999999999999612
