,C/O ratio,CH4 in,CH4 out,CO out,H2 out,H2O out,CO2 out,Exit temp,Max temp,Dist to max temp,O2 conv
0,0.6000000000000001,0.04220610931192466,6.859455418458575e-05,0.03760153201826158,0.05917588776929742,0.024621386863523744,0.004099961523712311,1833.2324511209742,1938.8142016636496,12.76,0.9999999927526532
1,0.7000000000000002,0.04764223879568619,0.0013928169823490884,0.042249287229791696,0.07353079664150024,0.018580680311138756,0.003619675371242623,1596.8239333986917,1879.7708278399116,12.21,0.9999999999779358
2,0.7999999999999998,0.05273657570711541,0.0036424327813544904,0.04548914982268667,0.08404547433836358,0.013855718317233453,0.0033351730992160085,1420.5326393820988,1835.1763496465544,11.860000000000001,0.9999999999999103
3,0.8999999999999999,0.057520372487514126,0.008493674018264178,0.04565085100939758,0.08606472417617447,0.01183085988972223,0.0032216868380592575,1336.3272447294503,1793.9302103475163,11.64,0.9999999999999957
4,0.9999999999999999,0.06202118410625546,0.013740732988754334,0.04503287918650822,0.08578330359495395,0.010686624926355541,0.003163225086891896,1283.6098567452732,1755.342952450947,11.47,0.9999999999999994
5,1.1000000000000005,0.06626339916140292,0.019038484730904935,0.0440341737696807,0.0843656924089195,0.01001182967738115,0.003135862719071185,1247.8085747990385,1717.9602289877864,11.370000000000001,0.9999999999999999
6,1.1999999999999995,0.07026868199272561,0.024332768013887236,0.04278281243809171,0.08224413440351833,0.009584722604448813,0.0031242195948987454,1221.1797070586633,1680.3919868469218,11.270000000000001,1.0
7,1.3000000000000003,0.07405634272972031,0.029521387476599683,0.04140146025660597,0.07972711719185491,0.009329978929794164,0.00312356659969071,1201.0037262841556,1643.291501167039,11.22,1.0
8,1.3999999999999995,0.07764364861664726,0.03445318690067086,0.040050316864181194,0.07718117145467722,0.009181178670698165,0.003128959352433203,1185.1916219043155,1608.4574997713798,11.160000000000002,1.0
9,1.6000000000000005,0.08427758988601222,0.043796841340668136,0.03733535187414136,0.07190646365011283,0.009051823852424777,0.0031431528752102807,1161.0002760867333,1544.1685607276818,11.040000000000001,1.0
10,1.8,0.09027684884714632,0.05233769029320594,0.03478147186095303,0.0668177491308118,0.009060457154632794,0.0031556607857897096,1143.4670735769835,1488.7866637245947,10.990000000000002,1.0
11,2.0,0.09572834938139431,0.06015564905450975,0.032410278100217654,0.06201651850098584,0.009131235720499703,0.003160508107931157,1129.6867274465928,1440.8440468238257,10.96,1.0
12,2.2,0.10070383531597825,0.06730801208425069,0.03023971208733674,0.05756829623405693,0.009223000659490012,0.0031558777036509627,1118.1371715725054,1399.1425605210475,10.94,1.0
13,2.4,0.10526304553491962,0.07387500105805725,0.028244663361491368,0.05344739458245418,0.00932847184059683,0.003143232607350069,1108.2484417999929,1362.4334746027423,10.93,1.0
14,2.6000000000000005,0.10945612414928066,0.07987994183371143,0.02644936424313771,0.04968887199486293,0.009430484445801973,0.0031245896219363645,1099.6019219790962,1330.1776688437521,10.93,1.0
