,C/O ratio,CH4 in,CH4 out,CO out,H2 out,H2O out,CO2 out,Exit temp,Max temp,Dist to max temp,O2 conv
0,0.6000000000000001,0.04220610931192466,0.04190227902275106,0.0001252869916303096,6.546322329017544e-12,0.0003418102325131013,1.3428548117686049e-06,712.8317986085458,712.831798723833,20.01,0.006680343427885902
1,0.7000000000000002,0.04764223879568619,0.047208162495080114,0.00018738064818487737,1.5861183421904478e-11,0.0005018662443836999,2.5535475408780423e-06,718.4092780753126,718.409278332319,20.01,0.010204870852066655
2,0.8,0.05273657570711542,0.05212410534821431,0.0002807459166039255,4.2207769324029064e-11,0.0007344801333072099,4.822385319230858e-06,726.4248600136765,726.4248606178876,20.01,0.015551195441260022
3,0.8999999999999999,0.05752037248751414,0.05664047128605683,0.00043865084566088123,1.4207899395486527e-10,0.0011120424491596814,9.51920509074677e-06,739.3973732917733,739.3973749072862,20.01,0.024567379480605767
4,1.0,0.06202118410625546,0.06062575151206151,0.0008009619585547872,9.523050206763264e-10,0.0019325377951336425,2.2440577231949033e-05,767.7508365897834,767.7508402379563,20.01,0.044808239337175974
5,1.1,0.0662633991614029,0.02354949272567496,0.023440907414122202,0.03288712693143466,0.03372885291828219,0.000563825774933723,1550.094873137315,1783.6226890972578,19.930000000000003,0.9678280891746566
6,1.1999999999999995,0.07026868199272561,0.0337263339136469,0.031886197919066245,0.043417637887099916,0.025491156348300615,0.0005887747747261499,1504.315470150119,1756.8759047500741,18.65,0.9999999999145683
7,1.2999999999999998,0.0740563427297203,0.03943710558973939,0.031394904729635464,0.04213847226615671,0.0243609092683568,0.0006042593042175484,1474.4749134255428,1730.0112393126449,17.62,0.9999999999871523
8,1.3999999999999995,0.07764364861664726,0.0446475232498313,0.03026625305456366,0.03975765995138903,0.023981755110223598,0.0006167815179565104,1454.1131665017126,1702.613762337897,16.8,0.9999999999932022
9,1.6000000000000003,0.08427758988601221,0.05420601469857355,0.02770575924131944,0.034349603169645616,0.023848288495906093,0.0006385918060701066,1426.2319804162214,1647.2578808441922,15.55,0.9999999999964182
10,1.7999999999999998,0.09027684884714632,0.06325681133134207,0.024909434668560874,0.02842350556515803,0.023941629040224108,0.0006523997363173333,1405.3297158575813,1588.6437961344486,14.660000000000002,0.9999999999973365
11,2.0,0.09572834938139431,0.07105388022502436,0.022796372773065555,0.02392205943001636,0.023909332487453968,0.0006581357636826986,1386.1107524478596,1538.1775324355137,13.99,0.9999999999980912
12,2.2000000000000006,0.10070383531597826,0.07837746439898871,0.020879133337613712,0.020035683365663068,0.023589125959095437,0.000652646924953054,1363.1600446196976,1488.1319619162668,13.47,0.9999999999988516
13,2.4,0.10526304553491962,0.08451405695661411,0.019547238202236056,0.017558771649641324,0.023151268417346084,0.000644658926515446,1339.4817128173897,1447.096532930227,13.070000000000002,0.9999999999993797
14,2.6,0.10945612414928066,0.0902036883673629,0.018274184580832614,0.015463054233288772,0.0225587469005182,0.0006326336077510239,1313.1790854579672,1406.6447760984154,12.740000000000002,0.999999999999698
