,C/O ratio,CH4 in,CH4 out,CO out,H2 out,H2O out,CO2 out,Exit temp,Max temp,Dist to max temp,O2 conv
0,0.6000000000000001,0.04220610931192466,0.042149471272898906,1.686247176426472e-05,1.6634134578301123e-05,9.664192761463869e-05,3.977555668918354e-05,705.7574798439024,705.7574798439067,42.81,0.002744467829685005
1,0.7000000000000002,0.04764223879568619,0.047563778439216046,2.3968033847136873e-05,3.0131254864098576e-05,0.00012678943667159315,5.4492308353595864e-05,707.4531977987795,707.4531977987853,48.14,0.003816350109809618
2,0.8,0.05273657570711542,0.052632055995856304,3.280234663998723e-05,4.999226840444116e-05,0.0001590471261543013,7.171734597987621e-05,709.268611342044,709.2686113420484,59.96000000000001,0.005086172759291129
3,0.8999999999999999,0.05752037248751414,0.05738519812413816,4.362056110773117e-05,7.758273773998412e-05,0.00019276595339168983,9.155377852259579e-05,711.1837547483034,711.1837547483052,67.98,0.006563668696427459
4,1.0,0.06202118410625546,0.06185035642960663,5.6713611843723666e-05,0.00011427286665334789,0.0002273824421544776,0.00011411403514637881,713.1841204722258,713.1841204722309,55.2,0.00826046997818791
5,1.1,0.0662633991614029,0.06605146981370273,7.241221549169076e-05,0.0001614423900448559,0.00026241625067456175,0.00013951709575523602,715.2596483996053,715.2596483996091,35.99,0.010190375657446122
6,1.1999999999999995,0.07026868199272561,0.07000970722528489,9.109028938449781e-05,0.00022048968125544185,0.0002974597873149886,0.00016788443384961894,717.4036343343719,717.4036343343802,20.14,0.012369418587696655
7,1.2999999999999998,0.0740563427297203,0.07374384124034417,0.0001131670404446606,0.00029283816152014135,0.00033216473773260333,0.00019933439593189335,719.6116724491283,719.611672449132,69.79,0.01481575662937883
8,1.3999999999999995,0.07764364861664726,0.07727056699905946,0.00013910678328393563,0.0003799346504227654,0.0003662284903839399,0.00023397477139127846,721.8806777660719,721.8806777661432,28.370000000000005,0.0175493910844306
9,1.6000000000000003,0.08427758988601221,0.08375981179796045,0.0002046314487682695,0.0006041756634626878,0.00043138038303107233,0.00031314655288034517,726.5905818095636,726.5905818097013,20.020000000000003,0.023964709001229
10,1.7999999999999998,0.09027684884714632,0.08957919437900495,0.0002920106772323636,0.0009042987504734971,0.0004910100130009181,0.00040564367570790577,731.5030712583407,731.5030712583426,39.660000000000004,0.031788376919889075
11,2.0,0.09572834938139431,0.09481213392799272,0.00040545781799801656,0.0012890002542177027,0.0005434304282877673,0.0005107574858747833,736.5597449995329,736.5597449995482,20.100000000000005,0.041166556123006584
12,2.2000000000000006,0.10070383531597826,0.0995294925526738,0.0005479500831382238,0.0017615323380333898,0.0005871529049431647,0.0006263924910905221,741.658174766628,741.6581747666382,53.02,0.052166370414825185
13,2.4,0.10526304553491962,0.1037944234627733,0.0007197897219140925,0.0023162530192895854,0.0006209907756852172,0.000748832117366242,746.6473084654676,746.647308466133,20.03,0.064716609463239
14,2.6,0.10945612414928066,0.10766584792790855,0.0009173556557642154,0.0029363454090667877,0.00064420661485501,0.000872920286402972,751.3387935841832,751.3387935842234,43.410000000000004,0.07856342001754192
