,C/O ratio,CH4 in,CH4 out,CO out,H2 out,H2O out,CO2 out,Exit temp,Max temp,Dist to max temp,O2 conv
0,0.6000000000000001,0.04220610931192466,1.6137016419996488e-05,0.038038420842296174,0.060040777115475716,0.024207860901128364,0.004049817624612157,1825.2965197051628,1911.4407918731163,15.520000000000001,0.9999999939808935
1,0.7000000000000002,0.04764223879568619,0.00016295500870671113,0.043834792679666376,0.07764416287329824,0.017187458229631948,0.0035213300654779963,1556.3972833490916,1837.8724219225467,14.360000000000001,0.9999999999935836
2,0.8,0.05273657570711542,0.0017247057401478332,0.04781263421124243,0.09011785802224898,0.011841065351872597,0.0031359810248518523,1358.6696597981056,1778.707368104277,13.600000000000001,0.9999999999999916
3,0.8999999999999999,0.05752037248751414,0.0049267052975340625,0.049773390370282986,0.09661424060769233,0.008547690022746473,0.0027955407636977695,1232.4998432983775,1724.0161480240683,13.080000000000002,1.0
4,1.0,0.06202118410625546,0.009114272842920088,0.05040013881237086,0.09917834125874303,0.00662592224908832,0.002497449786054859,1152.8156992098855,1672.2141244313618,12.68,1.0
5,1.1,0.0662633991614029,0.013757995691965563,0.050241103391047724,0.09949556722447218,0.005502597206836556,0.002256925751707928,1100.9604015614154,1623.8325557819837,12.38,1.0
6,1.1999999999999995,0.07026868199272561,0.018587054043838216,0.049604892277348954,0.09852695582892536,0.004825336003633774,0.002071432255448923,1065.398026793033,1579.1184218871417,12.15,1.0
7,1.2999999999999998,0.0740563427297203,0.02342491392273733,0.04869413945918264,0.09683774399287431,0.004417303014856518,0.001933526963361496,1040.1984587576799,1538.4371736400753,11.96,1.0
8,1.3999999999999995,0.07764364861664726,0.028174806231817597,0.04763885232698389,0.09477450248748268,0.004162213586978655,0.0018293463310939334,1021.2861885949721,1501.455494448401,11.8,1.0
9,1.6000000000000003,0.08427758988601221,0.03705868302385292,0.045484598899969024,0.0904060152710196,0.003945804826753632,0.0016946983518302688,996.2192230706663,1439.5615031723044,11.580000000000002,1.0
10,1.7999999999999998,0.09027684884714632,0.0455827712189577,0.04309282366261908,0.08548979349200789,0.003886684232757241,0.0015959763695984576,978.3030633268593,1384.767542729399,11.38,1.0
11,2.0,0.09572834938139431,0.05330596778811392,0.040899908891832606,0.08091962238409156,0.003923334073228737,0.0015218559912832017,965.5402374484958,1339.5677265658414,11.260000000000002,1.0
12,2.2000000000000006,0.10070383531597826,0.06038454198015583,0.03886170900787958,0.07663350879086354,0.0040014601372701086,0.0014576687114260802,955.5523589112479,1300.6896779330018,11.170000000000002,1.0
13,2.4,0.10526304553491962,0.06689065584306851,0.036973215828967,0.07264540172607159,0.004094163263019728,0.0013988389041444818,947.2195661678642,1266.7880799419897,11.090000000000002,1.0
14,2.6,0.10945612414928066,0.07284610067377786,0.035252949326886884,0.06899062972446345,0.0041959058028669186,0.0013444076712501676,940.2352527835307,1237.3198083559662,11.010000000000002,1.0
