,C/O ratio,CH4 in,CH4 out,CO out,H2 out,H2O out,CO2 out,Exit temp,Max temp,Dist to max temp,O2 conv
0,0.6000000000000001,0.04220610931192466,0.0026342706167259387,0.018407965098208395,0.03860725952791509,0.027214746920375132,0.007888987351783073,1787.8941663550625,1961.117070213066,12.560000000000002,0.8729098319147943
1,0.7000000000000002,0.04764223879568619,0.006573894267144964,0.013524866202564712,0.03519718528323988,0.0273614934095501,0.008009029061802663,1679.824584880685,1917.2916734837638,12.020000000000001,0.8361231084826204
2,0.8,0.05273657570711542,0.010777821332784493,0.011785132652500403,0.03439078432246497,0.027432933424580447,0.008131548349616232,1624.3140553266228,1885.6252388191263,11.670000000000002,0.8416737892566102
3,0.9000000000000001,0.05752037248751414,0.015530270046922959,0.010010787764016376,0.032609184407533146,0.02756490147481444,0.00823991370849327,1582.4854353798282,1858.8380381426161,11.420000000000002,0.845831523026143
4,0.9999999999999999,0.06202118410625546,0.019410425392419054,0.010362469271779208,0.03371933359048281,0.027514871998785235,0.00834073781888648,1561.7361198503677,1835.0299946317061,11.240000000000002,0.8797278558845476
5,1.1,0.0662633991614029,0.024238544735767947,0.008989404321224779,0.031728188217500605,0.02761754844907674,0.00843302692736601,1536.7390111988238,1813.0884929859246,11.11,0.8877273240211146
6,1.2,0.07026868199272561,0.028572146064542697,0.008643108299709242,0.031163879907531035,0.027567124293968237,0.008513026726800701,1520.5238252467307,1791.5955220355463,11.010000000000002,0.9091894256411015
7,1.3000000000000003,0.07405634272972031,0.03306359179452196,0.008026153960956,0.0299564069136987,0.02749905440417715,0.008581839362471911,1505.599121431629,1770.726041059893,10.93,0.9249725238838061
8,1.3999999999999995,0.07764364861664726,0.03746727844457261,0.007596270821423297,0.028889138181288094,0.027351908084184733,0.008638211238806792,1493.3222783630576,1750.0174405416024,10.860000000000001,0.9417316846790256
9,1.6000000000000005,0.08427758988601222,0.04625401807133778,0.007051509194256111,0.026787880555524175,0.026775529193810006,0.00871075328003484,1473.3532792492408,1707.3320461811395,10.780000000000001,0.9730189689153004
10,1.7999999999999998,0.09027684884714632,0.05531225104893625,0.006180146497603033,0.023583044451058237,0.02600156512366513,0.008727002168331381,1455.6250311990168,1662.589245616224,10.72,0.9897487450054158
11,2.0,0.09572834938139431,0.07001916119281094,0.016513184662534534,0.03610767146472495,0.01441683257425769,0.008466785896217795,1375.7135776571083,1616.160107442726,10.700000000000001,0.9999999999998715
12,2.2,0.10070383531597825,0.07770144359228792,0.01376128459180283,0.029778135780073708,0.015189597524084662,0.008411489141437455,1371.1727816559237,1569.7462019966451,10.68,0.9999999999998067
13,2.4,0.10526304553491962,0.0846843471894606,0.01138804069585259,0.024192663924448025,0.01584346069574801,0.008313744706696168,1365.42608183468,1525.4047218294302,10.67,0.9999999999997209
14,2.6000000000000005,0.10945612414928066,0.09100077168659593,0.009452296387227329,0.019552113290265336,0.01627909655955816,0.008183298714713603,1356.861947202928,1484.372605053063,10.650000000000002,0.9999999999996497
