,C/O ratio,CH4 in,CH4 out,CO out,H2 out,H2O out,CO2 out,Exit temp,Max temp,Dist to max temp,O2 conv
0,0.6000000000000001,0.04220610931192466,3.8001925163001456e-05,0.03726481639877079,0.06033606748412388,0.023736832436292044,0.004669989113223524,1829.3898348121825,1957.293187425786,13.22,0.9999999939002803
1,0.7000000000000002,0.04764223879568619,0.0007450208303476731,0.03830006640942154,0.06934734896629485,0.020481857426415857,0.004639090316559239,1634.1240099566487,1912.187495934443,12.570000000000002,0.9999999999371428
2,0.8,0.05273657570711542,0.00418169666173212,0.03682280062327716,0.07006205792200947,0.01992106904840837,0.004625736891221299,1540.5982706752325,1879.3522840323649,12.13,0.9999999999938266
3,0.8999999999999999,0.05752037248751414,0.00957539558402831,0.03455818477034318,0.06698920436406905,0.020118944351337598,0.0046169960718045345,1494.4996813335704,1850.9950598336056,11.83,0.9999999999978688
4,1.0,0.06202118410625546,0.01555758851203445,0.0323501423200302,0.06296660953325328,0.02044131173998907,0.004614581393368106,1468.4894915515688,1825.8204361051917,11.600000000000001,0.9999999999987209
5,1.1,0.0662633991614029,0.021463828794077256,0.029874509660533795,0.05812737871675337,0.02113112701735438,0.004616544633676756,1453.9707907426816,1801.8605684987162,11.430000000000001,0.999999999998878
6,1.1999999999999995,0.07026868199272561,0.027285697505004734,0.027418700490915278,0.05307348588234773,0.02189958471089756,0.0046190070869945804,1445.548454981853,1778.4291491460597,11.3,0.9999999999987912
7,1.2999999999999998,0.0740563427297203,0.033149485384708646,0.02519340231821965,0.0481170177403132,0.02253412727275885,0.004618854131973579,1441.0446775984758,1755.433807900538,11.19,0.9999999999985182
8,1.3999999999999995,0.07764364861664726,0.0387652647058423,0.022929148031558273,0.04303261761809854,0.023296473219970342,0.004616311518300868,1439.7510305267308,1732.026170551075,11.11,0.9999999999978717
9,1.6000000000000003,0.08427758988601221,0.05287255498493326,0.02623700364981417,0.044889873452474235,0.01724618582810655,0.0045948283920075085,1388.441311268944,1683.3753059088506,10.990000000000002,0.9999999999997946
10,1.7999999999999998,0.09027684884714632,0.06213168816144588,0.022877500243329765,0.03735165597544719,0.01811107242681293,0.004582225344654754,1382.0022816521878,1632.5840203339496,10.920000000000002,0.999999999999716
11,2.0,0.09572834938139431,0.07052644848070266,0.019849203486462335,0.030509637768412912,0.0189072296797797,0.004553460171144042,1376.31096207949,1581.3816416842765,10.870000000000001,0.9999999999995894
12,2.2000000000000006,0.10070383531597826,0.07812578417770111,0.017211943296902572,0.024523385721794907,0.019545590890192956,0.004508057305190131,1369.5477451541417,1532.5829103806134,10.830000000000002,0.9999999999994288
13,2.4,0.10526304553491962,0.08496509668474887,0.015054820363363067,0.019642949712379083,0.01990970054115703,0.004447202672018812,1359.5598109129317,1487.8098026636608,10.8,0.9999999999993241
14,2.6,0.10945612414928066,0.09108381855867882,0.013375177094708694,0.015921278744436655,0.01997450148062423,0.004374198056378108,1345.5738849748045,1447.403988681944,10.76,0.9999999999993576
