,C/O ratio,CH4 in,CH4 out,CO out,H2 out,H2O out,CO2 out,Exit temp,Max temp,Dist to max temp,O2 conv
0,0.6000000000000001,0.04220610931192466,0.00011698601806622176,0.038161797656122105,0.057834805896215716,0.025649909216539236,0.0032648271090585925,1831.5393258946629,1950.4328658393324,13.110000000000001,0.9999999925528205
1,0.7000000000000002,0.04764223879568619,0.001349232946341591,0.03829428815893898,0.06474082935757806,0.023145921706212776,0.003309855750214957,1656.839510221163,1904.9363612546051,12.46,0.9999999998747219
2,0.8,0.05273657570711542,0.005510870494169207,0.036219751310459986,0.0638760642058789,0.022938199689947876,0.0033811238280758884,1578.0020520800626,1871.1559638798963,12.050000000000002,0.9999999999810202
3,0.9000000000000001,0.05752037248751414,0.010911008326680611,0.03382763299640084,0.06071887730208428,0.023160329571403026,0.0034614187104388644,1534.200232888419,1845.6903959243386,11.770000000000001,0.9999999999926474
4,1.0,0.06202118410625546,0.01672573187499918,0.031588105782246835,0.057054750168061094,0.023343357642047858,0.0035443900727160447,1504.589472582132,1819.4652157363366,11.55,0.999999999995939
5,1.1,0.0662633991614029,0.02259507325107327,0.029540985268171012,0.05334324607813868,0.023449782727117,0.003628841977290525,1482.4807919897823,1795.9926946591995,11.39,0.9999999999973295
6,1.1999999999999995,0.07026868199272561,0.028424115757049315,0.027654363485464423,0.04967441801949324,0.02347738444974341,0.003712113251934936,1464.9948863134923,1773.6275710312016,11.270000000000001,0.9999999999980561
7,1.3000000000000003,0.07405634272972031,0.03412370668404616,0.025934609220858988,0.04614397257357701,0.02344070234592409,0.003794852242759461,1450.9133930678538,1750.6747692295946,11.170000000000002,0.9999999999984798
8,1.3999999999999995,0.07764364861664726,0.03937593927195487,0.024526259601106295,0.04311917225993348,0.023396301275491166,0.0038767885543497366,1440.0326509803415,1729.3458826574838,11.090000000000002,0.9999999999987317
9,1.6000000000000005,0.08427758988601222,0.050266553006616026,0.021605002850221062,0.036504103482500154,0.023001698784504525,0.004032530515590743,1420.805342346087,1680.4672512258287,10.990000000000002,0.9999999999990741
10,1.7999999999999998,0.09027684884714632,0.05997351345031479,0.019289180528498394,0.03094468216570694,0.022603575246894905,0.0041782196396604665,1407.395449237291,1632.7751263451164,10.920000000000002,0.9999999999992356
11,2.0,0.09572834938139431,0.06925266215225388,0.017146254965151545,0.025569657798012783,0.02210725325101847,0.004306063756739822,1396.4975079687154,1582.3657437518052,10.860000000000001,0.9999999999993281
12,2.2,0.10070383531597825,0.0777495746819965,0.015509166919564924,0.021150974869279863,0.021428952502885536,0.004417312529183766,1386.0621994501676,1535.2568329507076,10.830000000000002,0.9999999999994276
13,2.4,0.10526304553491962,0.0852022400861428,0.01440729193000944,0.018281842295436865,0.02040785386990166,0.0045215870266436965,1368.905251344672,1491.8911564158734,10.790000000000001,0.9999999999996375
14,2.6000000000000005,0.10945612414928066,0.0913500611260361,0.012619600814577876,0.014787873653370854,0.020261000496570293,0.004608392116903746,1355.0069049704448,1452.6436031714843,10.76,0.9999999999996936
