,C/O ratio,CH4 in,CH4 out,CO out,H2 out,H2O out,CO2 out,Exit temp,Max temp,Dist to max temp,O2 conv
0,0.6000000000000001,0.04220610931192466,3.6658819982021106e-05,0.037137584314696444,0.06049607405581919,0.023588584619874006,0.00480773316442088,1829.7230609258875,1963.036906522803,12.55,0.9999999939021105
1,0.7000000000000002,0.04764223879568619,0.0008583344424695949,0.04059639492799577,0.07601408439151135,0.016742202395604987,0.0053904567800223116,1595.6887112818267,1919.16263098238,12.010000000000002,0.9999999999835969
2,0.8,0.05273657570711542,0.005850500374641711,0.0402735028543932,0.07889813620363324,0.014053311498220164,0.005797466949655365,1497.718154786333,1886.79897511791,11.66,0.9999999999990552
3,0.8999999999999999,0.05752037248751414,0.012164235137957892,0.03854543574882165,0.07670212642910135,0.013248501238105103,0.006058674662762405,1456.5771053868214,1860.0391278728207,11.410000000000002,0.9999999999997051
4,1.0,0.06202118410625546,0.01859549046577171,0.03649746065588736,0.07314661419101115,0.013014792384677858,0.006254316257046076,1433.0357073983412,1835.9971826650228,11.23,0.9999999999998366
5,1.1,0.0662633991614029,0.02487102046746544,0.03436934553530856,0.06912643472627598,0.013030525985622897,0.006419630435927842,1417.6934481940125,1813.8369453218195,11.1,0.9999999999998802
6,1.1999999999999995,0.07026868199272561,0.030897155454934155,0.03226223979883071,0.06498882758358049,0.013171989698349918,0.0065613191177466635,1406.6687056528147,1792.2888449580455,11.000000000000002,0.999999999999898
7,1.2999999999999998,0.0740563427297203,0.036654543999630265,0.030202411720983324,0.06085852823151492,0.01338785972175375,0.006687892700562074,1398.4202825369478,1771.2535483021354,10.920000000000002,0.9999999999999042
8,1.3999999999999995,0.07764364861664726,0.04214091279115973,0.02820704445657855,0.056804570399435365,0.013648561976500431,0.006801877720624267,1391.9964900794964,1750.072866027052,10.860000000000001,0.999999999999904
9,1.6000000000000003,0.08427758988601221,0.052339069657391976,0.024428804429797987,0.04903744462484211,0.014242598363834597,0.007000822981644398,1382.6785004366382,1707.1297964440434,10.77,0.9999999999998898
10,1.7999999999999998,0.09027684884714632,0.0615861174797531,0.020951929106338477,0.04182491894467558,0.014864257971722814,0.0071685349975128595,1376.0341879907967,1661.9225438442334,10.72,0.9999999999998596
11,2.0,0.09572834938139431,0.0699747781205787,0.01779673071437536,0.03526005364379209,0.015443626069232693,0.007311649256534838,1370.3461357039134,1615.2147135318828,10.68,0.9999999999998143
12,2.2000000000000006,0.10070383531597826,0.07754570148354628,0.015011868349057706,0.029487182209069294,0.015917831454893647,0.0074378841026745786,1364.424931335101,1569.3470669061899,10.660000000000002,0.9999999999997586
13,2.4,0.10526304553491962,0.08447011865878669,0.012576656926376589,0.0244793089180486,0.016213224797691432,0.007534634190744286,1356.3513432904365,1524.8273361274894,10.64,0.999999999999716
14,2.6,0.10945612414928066,0.09066155737690179,0.010617881182695965,0.0205047159011268,0.01629460491763656,0.0075928479368615465,1345.2721118115599,1484.1437925118862,10.610000000000001,0.9999999999997171
