,C/O ratio,CH4 in,CH4 out,CO out,H2 out,H2O out,CO2 out,Exit temp,Max temp,Dist to max temp,O2 conv
0,0.6000000000000001,0.04220610931192466,0.04172795347069356,0.00019725631189629567,0.0005976706099090893,0.00035864107096705665,0.00028089952828239454,728.2372481414914,728.2372481415052,20.16,0.01588911831138336
1,0.7000000000000002,0.04764223879568619,0.047130857737101794,0.00022081295851014387,0.000688527016385331,0.0003342350990739792,0.000290568098936559,727.0613402603276,727.0613402603282,67.45000000000002,0.01669377845641225
2,0.8,0.05273657570711542,0.0522077281938445,0.000237564041272975,0.0007529619812406132,0.0003047330435178652,0.0002912834708055944,725.3790775547786,725.3790775547933,20.130000000000003,0.017063891805222157
3,0.8999999999999999,0.05752037248751414,0.05698423891215223,0.00024946195194563417,0.0007973027023427956,0.00027496444654925964,0.0002866716221959568,723.555660327452,723.5556603274525,69.99000000000001,0.01717639571687851
4,1.0,0.06202118410625546,0.061484012782303976,0.00025803826680221757,0.0008271924115832855,0.0002471502344592769,0.00027913305590767247,721.7760130971523,721.7760130971565,20.080000000000002,0.017146635130034758
5,1.1,0.0662633991614029,0.06572888897136946,0.00026436116250420666,0.0008469212819613946,0.00022209909622446786,0.00027014902627915444,720.1217469687847,720.121746968788,20.12,0.01704461524650359
6,1.1999999999999995,0.07026868199272561,0.06973894314075382,0.0002691411671495089,0.0008595456260436068,0.00019993207600324517,0.000260597683561927,718.6205519334166,718.620551933422,52.120000000000005,0.016911123133865426
7,1.3000000000000003,0.07405634272972031,0.07353251370503468,0.0002728443941849192,0.0008671885289551556,0.0001804695185094,0.00025098462923028435,717.2739666304358,717.2739666304373,56.67,0.01676923377672779
8,1.3999999999999995,0.07764364861664726,0.07712627923442887,0.0002757777137911335,0.0008713158979479158,0.00016342286457356604,0.00024159166714920005,716.0719507448453,716.0719507448616,20.18,0.016631591922828873
9,1.6000000000000003,0.08427758988601221,0.08377351762985094,0.00028008767601777094,0.0008727809958699813,0.00013536351452011163,0.0002239845788559706,714.0436202534208,714.0436202534408,20.080000000000002,0.016391932430548303
10,1.7999999999999998,0.09027684884714632,0.08978558272606389,0.0002830503926953719,0.000868946515915626,0.00011358572430206371,0.00020821572709148493,712.420384689818,712.4203846898181,69.95000000000002,0.016211483327008634
11,2.0,0.09572834938139431,0.09524895355390853,0.0002851529876469684,0.0008623490174224336,9.644263559213002e-05,0.00019424283853714832,711.1058700727682,711.105870072939,20.12,0.01608888706958791
12,2.2,0.10070383531597825,0.10023529538878383,0.00028666080962634155,0.0008543297277072233,8.275012471463607e-05,0.00018187911626038993,710.0271301107726,710.0271301107929,68.70000000000002,0.016016988470339687
13,2.4,0.10526304553491962,0.10480440166694245,0.0002877316033981114,0.0008456244076116511,7.166332637226153e-05,0.0001709122632663917,709.1303228026188,709.1303228026219,57.25,0.01598782069056301
14,2.6000000000000005,0.10945612414928066,0.10900651281549557,0.00028846676967627527,0.0008366482311495338,6.25744344441241e-05,0.00016114456279739042,708.375727511477,708.3757275114858,68.27000000000001,0.015994160886310005
