,C/O ratio,CH4 in,CH4 out,CO out,H2 out,H2O out,CO2 out,Exit temp,Max temp,Dist to max temp,O2 conv
0,0.6000000000000001,0.04220610931192466,0.00019880129258618209,0.03809468271653473,0.056701974388204936,0.026372595309078574,0.0030337853864717827,1841.793267567919,1957.0869855729857,13.240000000000002,0.9999999904571475
1,0.7000000000000002,0.04764223879568619,0.002010082592535563,0.03680930400270118,0.06046689657851998,0.025055463333617595,0.0030974142559573917,1688.4484408104254,1907.8057135600277,12.600000000000001,0.9999999996639839
2,0.8,0.05273657570711542,0.005941978128884773,0.03431079235469804,0.05902183851803749,0.0252465382617817,0.0031812821858293932,1612.3891187483428,1873.828824688077,12.17,0.9999999999285304
3,0.9000000000000001,0.05752037248751414,0.01111717734763657,0.03193278074778987,0.05614155172839745,0.02543824626740426,0.0032697158822090977,1564.9008363125445,1845.4054317422208,11.870000000000001,0.999999999970656
4,1.0,0.06202118410625546,0.016795391443679475,0.029802880118942488,0.05285227239740169,0.025498086423783966,0.003359454463580109,1531.4246734034718,1819.9032973107505,11.65,0.9999999999838096
5,1.1,0.0662633991614029,0.022531081414740726,0.027961401120648516,0.04960133073406362,0.025469252585008064,0.0034498361164319786,1506.819040650506,1796.5240357062653,11.49,0.9999999999893533
6,1.1999999999999995,0.07026868199272561,0.028266234656950568,0.02631033931531574,0.04639846271751805,0.025340446774991327,0.003538279284991443,1487.2934797775852,1773.6997008351639,11.350000000000001,0.999999999992313
7,1.3000000000000003,0.07405634272972031,0.03425155154747637,0.024655671931885986,0.04293426028322185,0.025058536622675973,0.0036251760737550554,1470.3053895084497,1749.636196846587,11.250000000000002,0.9999999999941921
8,1.3999999999999995,0.07764364861664726,0.0398248434755778,0.023319824883845392,0.039954744181319425,0.024766618223549003,0.00371165198193862,1457.0539652285277,1726.9476726012144,11.180000000000001,0.9999999999953186
9,1.6000000000000005,0.08427758988601222,0.05074297696406492,0.020966500631728075,0.03425668228628224,0.023953474995041142,0.0038760348508227265,1435.3486007610115,1678.9543440874186,11.05,0.9999999999967312
10,1.7999999999999998,0.09027684884714632,0.0608737665002297,0.019058477949963428,0.02923620563516715,0.023033660537574826,0.004029692174494109,1418.5875463627433,1629.778040989529,10.98,0.9999999999975424
11,2.0,0.09572834938139431,0.07011280834888273,0.017365335009376776,0.024714303907535064,0.022158960941974244,0.004168792465482475,1404.2866180055726,1580.5530304784108,10.920000000000002,0.9999999999980893
12,2.2,0.10070383531597825,0.07823002433222213,0.015712443775417213,0.020649566141009254,0.021497994284283898,0.004293466272169331,1390.6136871465665,1533.9589283473097,10.88,0.999999999998502
13,2.4,0.10526304553491962,0.08505825150745987,0.013970658467244955,0.016988872103036005,0.02119565403675765,0.004407155522745376,1376.9302475877832,1492.2613568037411,10.84,0.9999999999987902
14,2.6000000000000005,0.10945612414928066,0.09140287473055549,0.01226951185166955,0.013661395761587179,0.02082083491846984,0.004502429574776613,1360.700818261883,1451.3236843963437,10.8,0.9999999999990875
