,C/O ratio,CH4 in,CH4 out,CO out,H2 out,H2O out,CO2 out,Exit temp,Max temp,Dist to max temp,O2 conv
0,0.6000000000000001,0.04220610931192466,0.042121496972784646,4.785578941119948e-05,0.00011317223564944452,5.6052442577811725e-05,3.675654969323768e-05,704.156310660208,704.1563106602141,20.040000000000003,0.002522213030333428
1,0.7000000000000002,0.04764223879568619,0.04755779100330371,5.0108567553971975e-05,0.00012050910743586623,4.838647727442311e-05,3.433922479289194e-05,703.6439396478522,703.6439396478761,21.27,0.0024562541370269845
2,0.8,0.05273657570711542,0.052652455742228564,5.1903243129084676e-05,0.00012609753395877564,4.214239575895611e-05,3.2216721721884544e-05,703.2293122737699,703.2293122737766,59.84,0.0024040860488621124
3,0.8999999999999999,0.05752037248751414,0.05743666469271124,5.3360442827057044e-05,0.0001304154044633794,3.7000185087250605e-05,3.0347351938826022e-05,702.8895739899768,702.8895739899913,20.190000000000005,0.0023635069245468844
4,1.0,0.06202118410625546,0.06193793420196326,5.455939747324403e-05,0.00013378221812330857,3.271759040561355e-05,2.8690506782259405e-05,702.6076416098874,702.6076416100447,20.42,0.0023323966415611922
5,1.1,0.0662633991614029,0.06618063233009104,5.555502895216228e-05,0.00013642010832109826,2.911355424701107e-05,2.7211802322970334e-05,702.3708911875311,702.3708911875394,33.690000000000005,0.0023089881992921376
6,1.1999999999999995,0.07026868199272561,0.07018641167782737,5.638704761990422e-05,0.00013848865121462062,2.6051978526214296e-05,2.5883267241120413e-05,702.1699357217469,702.1699357217614,20.68,0.0022918698383525542
7,1.2999999999999998,0.0740563427297203,0.07397457523554797,5.708514073031038e-05,0.00014010563267459773,2.3429355613979462e-05,2.468235340596961e-05,701.9977106561952,701.9977106561995,39.410000000000004,0.0022799257696615514
8,1.3999999999999995,0.07764364861664726,0.07756238567510378,5.767210514249099e-05,0.00014135996915965926,2.1165913870824516e-05,2.3590836364442244e-05,701.8488264197063,701.8488264197293,19.990000000000002,0.0022722730278941753
9,1.6000000000000003,0.08427758988601221,0.08419732998875525,5.8580613152236834e-05,0.00014303933422790105,1.7480460230192703e-05,2.1679284067664448e-05,701.6053122965781,701.6053122965891,26.830000000000002,0.002267167663426661
10,1.7999999999999998,0.09027684884714632,0.0901975728329126,5.92176269782692e-05,0.0001439163640387961,1.4635664373496511e-05,2.0058387219101957e-05,701.415593223635,701.4155932236384,66.35000000000001,0.0022724111570949597
11,2.0,0.09572834938139431,0.09565003070589015,5.9653578479750057e-05,0.00014423980738253528,1.2397543571904066e-05,1.866509698827119e-05,701.2644485509536,701.2644485509585,50.84,0.002285243959679059
12,2.2000000000000006,0.10070383531597826,0.10062644380434962,5.9937670039657146e-05,0.0001441747577969406,1.060826540669159e-05,1.7453841553705147e-05,701.1417512141646,701.1417512141724,42.56,0.002303764898721883
13,2.4,0.10526304553491962,0.10518654947022368,6.010534068559062e-05,0.0001438340873239343,9.158042015127994e-06,1.6390723975060776e-05,701.0405349984629,701.0405349984682,30.130000000000003,0.002326624623846725
14,2.6,0.10945612414928066,0.1093804915003199,6.018272708001104e-05,0.00014329678626261963,7.96851160714238e-06,1.5449921846328385e-05,700.9558708252061,700.9558708252208,58.32,0.0023528406140899947
