This mechanism contains 139 gas reactions and 39 surface reactions
  distance(mm)   X_CH4        X_O2        X_H2       X_CO       X_H2O       X_CO2
    0.000000    0.037355    0.009339    0.000000   0.000000   0.000000   0.000000
    1.000000    0.037355    0.009339    0.000000   0.000000   0.000000   0.000000
    2.000000    0.037355    0.009339    0.000000   0.000000   0.000000   0.000000
    3.000000    0.037355    0.009339    0.000000   0.000000   0.000000   0.000000
    4.000000    0.037355    0.009339    0.000000   0.000000   0.000000   0.000000
    5.000000    0.037355    0.009339    0.000000   0.000000   0.000000   0.000000
    6.000000    0.037355    0.009339    0.000000   0.000000   0.000000   0.000000
    7.000000    0.037355    0.009339    0.000000   0.000000   0.000000   0.000000
    8.000000    0.037355    0.009339    0.000000   0.000000   0.000000   0.000000
    9.000000    0.037355    0.009339    0.000000   0.000000   0.000000   0.000000
   10.000000    0.037352    0.009337    0.000000   0.000000   0.000001   0.000000
   11.000000    0.037132    0.009185    0.000000   0.000000   0.000107   0.000000
   12.000000    0.036928    0.009100    0.000000   0.000000   0.000205   0.000000
   13.000000    0.036728    0.009051    0.000000   0.000000   0.000300   0.000000
   14.000000    0.036527    0.009012    0.000000   0.000000   0.000396   0.000000
   15.000000    0.036324    0.008972    0.000000   0.000000   0.000493   0.000000
   16.000000    0.036117    0.008929    0.000000   0.000000   0.000591   0.000000
   17.000000    0.035906    0.008884    0.000000   0.000000   0.000692   0.000000
   18.000000    0.035690    0.008837    0.000000   0.000000   0.000795   0.000001
   19.000000    0.035469    0.008787    0.000000   0.000000   0.000900   0.000001
   20.000000    0.035245    0.008737    0.000000   0.000000   0.001007   0.000001
   21.000000    0.035246    0.008773    0.000000   0.000000   0.001007   0.000001
   22.000000    0.035246    0.008778    0.000000   0.000000   0.001007   0.000001
   23.000000    0.035246    0.008780    0.000000   0.000000   0.001007   0.000001
   24.000000    0.035246    0.008781    0.000000   0.000000   0.001007   0.000001
   25.000000    0.035246    0.008782    0.000000   0.000000   0.001007   0.000001
   26.000000    0.035246    0.008783    0.000000   0.000000   0.001007   0.000001
   27.000000    0.035246    0.008783    0.000000   0.000000   0.001007   0.000001
   28.000000    0.035246    0.008783    0.000000   0.000000   0.001007   0.000001
   29.000000    0.035246    0.008783    0.000000   0.000000   0.001007   0.000001
   30.000000    0.035246    0.008783    0.000000   0.000000   0.001007   0.000001
   31.000000    0.035246    0.008784    0.000000   0.000000   0.001007   0.000001
   32.000000    0.035246    0.008784    0.000000   0.000000   0.001007   0.000001
   33.000000    0.035246    0.008784    0.000000   0.000000   0.001007   0.000001
   34.000000    0.035246    0.008784    0.000000   0.000000   0.001007   0.000001
   35.000000    0.035246    0.008784    0.000000   0.000000   0.001007   0.000001
   36.000000    0.035246    0.008784    0.000000   0.000000   0.001007   0.000001
   37.000000    0.035246    0.008784    0.000000   0.000000   0.001007   0.000001
   38.000000    0.035246    0.008784    0.000000   0.000000   0.001007   0.000001
   39.000000    0.035246    0.008784    0.000000   0.000000   0.001007   0.000001
   40.000000    0.035246    0.008784    0.000000   0.000000   0.001007   0.000001
   41.000000    0.035246    0.008784    0.000000   0.000000   0.001007   0.000001
   42.000000    0.035246    0.008784    0.000000   0.000000   0.001007   0.000001
   43.000000    0.035246    0.008784    0.000000   0.000000   0.001007   0.000001
   44.000000    0.035246    0.008784    0.000000   0.000000   0.001007   0.000001
   45.000000    0.035246    0.008784    0.000000   0.000000   0.001007   0.000001
   46.000000    0.035246    0.008784    0.000000   0.000000   0.001007   0.000001
   47.000000    0.035246    0.008784    0.000000   0.000000   0.001007   0.000001
   48.000000    0.035246    0.008784    0.000000   0.000000   0.001007   0.000001
   49.000000    0.035246    0.008784    0.000000   0.000000   0.001007   0.000001
   50.000000    0.035246    0.008784    0.000000   0.000000   0.001007   0.000001
   51.000000    0.035246    0.008784    0.000000   0.000000   0.001007   0.000001
   52.000000    0.035246    0.008784    0.000000   0.000000   0.001007   0.000001
   53.000000    0.035246    0.008784    0.000000   0.000000   0.001007   0.000001
   54.000000    0.035246    0.008784    0.000000   0.000000   0.001007   0.000001
   55.000000    0.035246    0.008785    0.000000   0.000000   0.001007   0.000001
   56.000000    0.035246    0.008785    0.000000   0.000000   0.001007   0.000001
   57.000000    0.035246    0.008785    0.000000   0.000000   0.001007   0.000001
   58.000000    0.035246    0.008785    0.000000   0.000000   0.001007   0.000001
   59.000000    0.035246    0.008785    0.000000   0.000000   0.001007   0.000001
   60.000000    0.035246    0.008785    0.000000   0.000000   0.001007   0.000001
   61.000000    0.035246    0.008785    0.000000   0.000000   0.001007   0.000001
   62.000000    0.035246    0.008785    0.000000   0.000000   0.001007   0.000001
   63.000000    0.035246    0.008785    0.000000   0.000000   0.001007   0.000001
   64.000000    0.035246    0.008785    0.000000   0.000000   0.001007   0.000001
   65.000000    0.035246    0.008785    0.000000   0.000000   0.001007   0.000001
   66.000000    0.035246    0.008785    0.000000   0.000000   0.001007   0.000001
   67.000000    0.035246    0.008785    0.000000   0.000000   0.001007   0.000001
   68.000000    0.035246    0.008785    0.000000   0.000000   0.001007   0.000001
   69.000000    0.035246    0.008785    0.000000   0.000000   0.001007   0.000001
   70.000000    0.035246    0.008785    0.000000   0.000000   0.001007   0.000001
Finished simulation at a C/O ratio of 2.0
  distance(mm)   X_CH4        X_O2        X_H2       X_CO       X_H2O       X_CO2
    0.000000    0.042711    0.008214    0.000000   0.000000   0.000000   0.000000
    1.000000    0.042711    0.008214    0.000000   0.000000   0.000000   0.000000
    2.000000    0.042711    0.008214    0.000000   0.000000   0.000000   0.000000
    3.000000    0.042711    0.008214    0.000000   0.000000   0.000000   0.000000
    4.000000    0.042711    0.008214    0.000000   0.000000   0.000000   0.000000
    5.000000    0.042711    0.008214    0.000000   0.000000   0.000000   0.000000
    6.000000    0.042711    0.008214    0.000000   0.000000   0.000000   0.000000
    7.000000    0.042711    0.008214    0.000000   0.000000   0.000000   0.000000
    8.000000    0.042711    0.008214    0.000000   0.000000   0.000000   0.000000
    9.000000    0.042711    0.008214    0.000000   0.000000   0.000000   0.000000
   10.000000    0.042709    0.008212    0.000000   0.000000   0.000001   0.000000
   11.000000    0.042475    0.008058    0.000000   0.000000   0.000114   0.000000
   12.000000    0.042256    0.007977    0.000000   0.000000   0.000218   0.000000
   13.000000    0.042041    0.007928    0.000000   0.000000   0.000321   0.000000
   14.000000    0.041825    0.007884    0.000000   0.000000   0.000424   0.000000
   15.000000    0.041605    0.007839    0.000000   0.000000   0.000528   0.000000
   16.000000    0.041382    0.007791    0.000000   0.000000   0.000635   0.000000
   17.000000    0.041155    0.007740    0.000000   0.000000   0.000743   0.000000
   18.000000    0.040923    0.007688    0.000000   0.000000   0.000854   0.000001
   19.000000    0.040686    0.007633    0.000000   0.000000   0.000967   0.000001
   20.000000    0.040445    0.007577    0.000000   0.000000   0.001082   0.000001
   21.000000    0.040446    0.007610    0.000000   0.000000   0.001082   0.000001
   22.000000    0.040446    0.007614    0.000000   0.000000   0.001082   0.000001
   23.000000    0.040446    0.007616    0.000000   0.000000   0.001082   0.000001
   24.000000    0.040446    0.007616    0.000000   0.000000   0.001082   0.000001
   25.000000    0.040446    0.007617    0.000000   0.000000   0.001082   0.000001
   26.000000    0.040446    0.007617    0.000000   0.000000   0.001082   0.000001
   27.000000    0.040446    0.007618    0.000000   0.000000   0.001082   0.000001
   28.000000    0.040446    0.007618    0.000000   0.000000   0.001082   0.000001
   29.000000    0.040446    0.007618    0.000000   0.000000   0.001082   0.000001
   30.000000    0.040446    0.007618    0.000000   0.000000   0.001082   0.000001
   31.000000    0.040446    0.007618    0.000000   0.000000   0.001082   0.000001
   32.000000    0.040446    0.007618    0.000000   0.000000   0.001082   0.000001
   33.000000    0.040446    0.007618    0.000000   0.000000   0.001082   0.000001
   34.000000    0.040446    0.007618    0.000000   0.000000   0.001082   0.000001
   35.000000    0.040446    0.007618    0.000000   0.000000   0.001082   0.000001
   36.000000    0.040446    0.007618    0.000000   0.000000   0.001082   0.000001
   37.000000    0.040446    0.007618    0.000000   0.000000   0.001082   0.000001
   38.000000    0.040446    0.007618    0.000000   0.000000   0.001082   0.000001
   39.000000    0.040446    0.007619    0.000000   0.000000   0.001082   0.000001
   40.000000    0.040446    0.007619    0.000000   0.000000   0.001082   0.000001
   41.000000    0.040446    0.007619    0.000000   0.000000   0.001082   0.000001
   42.000000    0.040446    0.007619    0.000000   0.000000   0.001082   0.000001
   43.000000    0.040446    0.007619    0.000000   0.000000   0.001082   0.000001
   44.000000    0.040446    0.007619    0.000000   0.000000   0.001082   0.000001
   45.000000    0.040446    0.007619    0.000000   0.000000   0.001082   0.000001
   46.000000    0.040446    0.007619    0.000000   0.000000   0.001082   0.000001
   47.000000    0.040446    0.007619    0.000000   0.000000   0.001082   0.000001
   48.000000    0.040446    0.007619    0.000000   0.000000   0.001082   0.000001
   49.000000    0.040446    0.007619    0.000000   0.000000   0.001082   0.000001
   50.000000    0.040446    0.007619    0.000000   0.000000   0.001082   0.000001
   51.000000    0.040446    0.007619    0.000000   0.000000   0.001082   0.000001
   52.000000    0.040446    0.007619    0.000000   0.000000   0.001082   0.000001
   53.000000    0.040446    0.007619    0.000000   0.000000   0.001082   0.000001
   54.000000    0.040446    0.007619    0.000000   0.000000   0.001082   0.000001
   55.000000    0.040446    0.007619    0.000000   0.000000   0.001082   0.000001
   56.000000    0.040446    0.007619    0.000000   0.000000   0.001082   0.000001
   57.000000    0.040446    0.007619    0.000000   0.000000   0.001082   0.000001
   58.000000    0.040446    0.007619    0.000000   0.000000   0.001082   0.000001
   59.000000    0.040446    0.007619    0.000000   0.000000   0.001082   0.000001
   60.000000    0.040446    0.007619    0.000000   0.000000   0.001082   0.000001
   61.000000    0.040446    0.007619    0.000000   0.000000   0.001082   0.000001
   62.000000    0.040446    0.007619    0.000000   0.000000   0.001082   0.000001
   63.000000    0.040446    0.007619    0.000000   0.000000   0.001082   0.000001
   64.000000    0.040446    0.007619    0.000000   0.000000   0.001082   0.000001
   65.000000    0.040446    0.007619    0.000000   0.000000   0.001082   0.000001
   66.000000    0.040446    0.007619    0.000000   0.000000   0.001082   0.000001
   67.000000    0.040446    0.007619    0.000000   0.000000   0.001082   0.000001
   68.000000    0.040446    0.007619    0.000000   0.000000   0.001082   0.000001
   69.000000    0.040446    0.007619    0.000000   0.000000   0.001082   0.000001
   70.000000    0.040446    0.007619    0.000000   0.000000   0.001082   0.000001
Finished simulation at a C/O ratio of 2.6
  distance(mm)   X_CH4        X_O2        X_H2       X_CO       X_H2O       X_CO2
    0.000000    0.041075    0.008557    0.000000   0.000000   0.000000   0.000000
    1.000000    0.041075    0.008557    0.000000   0.000000   0.000000   0.000000
    2.000000    0.041075    0.008557    0.000000   0.000000   0.000000   0.000000
    3.000000    0.041075    0.008557    0.000000   0.000000   0.000000   0.000000
    4.000000    0.041075    0.008557    0.000000   0.000000   0.000000   0.000000
    5.000000    0.041075    0.008557    0.000000   0.000000   0.000000   0.000000
    6.000000    0.041075    0.008557    0.000000   0.000000   0.000000   0.000000
    7.000000    0.041075    0.008557    0.000000   0.000000   0.000000   0.000000
    8.000000    0.041075    0.008557    0.000000   0.000000   0.000000   0.000000
    9.000000    0.041075    0.008557    0.000000   0.000000   0.000000   0.000000
   10.000000    0.041073    0.008555    0.000000   0.000000   0.000001   0.000000
   11.000000    0.040842    0.008402    0.000000   0.000000   0.000112   0.000000
   12.000000    0.040627    0.008319    0.000000   0.000000   0.000215   0.000000
   13.000000    0.040417    0.008271    0.000000   0.000000   0.000315   0.000000
   14.000000    0.040205    0.008228    0.000000   0.000000   0.000416   0.000000
   15.000000    0.039990    0.008184    0.000000   0.000000   0.000518   0.000000
   16.000000    0.039771    0.008138    0.000000   0.000000   0.000623   0.000000
   17.000000    0.039548    0.008089    0.000000   0.000000   0.000729   0.000000
   18.000000    0.039321    0.008038    0.000000   0.000000   0.000838   0.000001
   19.000000    0.039088    0.007984    0.000000   0.000000   0.000949   0.000001
   20.000000    0.038852    0.007930    0.000000   0.000000   0.001062   0.000001
   21.000000    0.038852    0.007964    0.000000   0.000000   0.001062   0.000001
   22.000000    0.038852    0.007968    0.000000   0.000000   0.001062   0.000001
   23.000000    0.038852    0.007970    0.000000   0.000000   0.001062   0.000001
   24.000000    0.038852    0.007971    0.000000   0.000000   0.001062   0.000001
   25.000000    0.038852    0.007971    0.000000   0.000000   0.001062   0.000001
   26.000000    0.038852    0.007972    0.000000   0.000000   0.001062   0.000001
   27.000000    0.038852    0.007972    0.000000   0.000000   0.001062   0.000001
   28.000000    0.038852    0.007972    0.000000   0.000000   0.001062   0.000001
   29.000000    0.038852    0.007972    0.000000   0.000000   0.001062   0.000001
   30.000000    0.038852    0.007973    0.000000   0.000000   0.001062   0.000001
   31.000000    0.038852    0.007973    0.000000   0.000000   0.001062   0.000001
   32.000000    0.038852    0.007973    0.000000   0.000000   0.001062   0.000001
   33.000000    0.038852    0.007973    0.000000   0.000000   0.001062   0.000001
   34.000000    0.038852    0.007973    0.000000   0.000000   0.001062   0.000001
   35.000000    0.038852    0.007973    0.000000   0.000000   0.001062   0.000001
   36.000000    0.038852    0.007973    0.000000   0.000000   0.001062   0.000001
   37.000000    0.038852    0.007973    0.000000   0.000000   0.001062   0.000001
   38.000000    0.038852    0.007973    0.000000   0.000000   0.001062   0.000001
   39.000000    0.038852    0.007973    0.000000   0.000000   0.001062   0.000001
   40.000000    0.038852    0.007973    0.000000   0.000000   0.001062   0.000001
   41.000000    0.038852    0.007973    0.000000   0.000000   0.001062   0.000001
   42.000000    0.038852    0.007973    0.000000   0.000000   0.001062   0.000001
   43.000000    0.038852    0.007973    0.000000   0.000000   0.001062   0.000001
   44.000000    0.038852    0.007973    0.000000   0.000000   0.001062   0.000001
   45.000000    0.038852    0.007973    0.000000   0.000000   0.001062   0.000001
   46.000000    0.038852    0.007973    0.000000   0.000000   0.001062   0.000001
   47.000000    0.038852    0.007973    0.000000   0.000000   0.001062   0.000001
   48.000000    0.038852    0.007973    0.000000   0.000000   0.001062   0.000001
   49.000000    0.038852    0.007973    0.000000   0.000000   0.001062   0.000001
   50.000000    0.038852    0.007973    0.000000   0.000000   0.001062   0.000001
   51.000000    0.038852    0.007973    0.000000   0.000000   0.001062   0.000001
   52.000000    0.038852    0.007973    0.000000   0.000000   0.001062   0.000001
   53.000000    0.038852    0.007973    0.000000   0.000000   0.001062   0.000001
   54.000000    0.038852    0.007973    0.000000   0.000000   0.001062   0.000001
   55.000000    0.038852    0.007973    0.000000   0.000000   0.001062   0.000001
   56.000000    0.038852    0.007973    0.000000   0.000000   0.001062   0.000001
   57.000000    0.038852    0.007973    0.000000   0.000000   0.001062   0.000001
   58.000000    0.038852    0.007973    0.000000   0.000000   0.001062   0.000001
   59.000000    0.038852    0.007973    0.000000   0.000000   0.001062   0.000001
   60.000000    0.038852    0.007973    0.000000   0.000000   0.001062   0.000001
   61.000000    0.038852    0.007973    0.000000   0.000000   0.001062   0.000001
   62.000000    0.038852    0.007973    0.000000   0.000000   0.001062   0.000001
   63.000000    0.038852    0.007973    0.000000   0.000000   0.001062   0.000001
   64.000000    0.038852    0.007973    0.000000   0.000000   0.001062   0.000001
   65.000000    0.038852    0.007973    0.000000   0.000000   0.001062   0.000001
   66.000000    0.038852    0.007973    0.000000   0.000000   0.001062   0.000001
   67.000000    0.038852    0.007973    0.000000   0.000000   0.001062   0.000001
   68.000000    0.038852    0.007973    0.000000   0.000000   0.001062   0.000001
   69.000000    0.038852    0.007973    0.000000   0.000000   0.001062   0.000001
   70.000000    0.038852    0.007973    0.000000   0.000000   0.001062   0.000001
Finished simulation at a C/O ratio of 2.4
  distance(mm)   X_CH4        X_O2        X_H2       X_CO       X_H2O       X_CO2
    0.000000    0.035227    0.009785    0.000000   0.000000   0.000000   0.000000
    1.000000    0.035227    0.009785    0.000000   0.000000   0.000000   0.000000
    2.000000    0.035227    0.009785    0.000000   0.000000   0.000000   0.000000
    3.000000    0.035227    0.009785    0.000000   0.000000   0.000000   0.000000
    4.000000    0.035227    0.009785    0.000000   0.000000   0.000000   0.000000
    5.000000    0.035227    0.009785    0.000000   0.000000   0.000000   0.000000
    6.000000    0.035227    0.009785    0.000000   0.000000   0.000000   0.000000
    7.000000    0.035227    0.009785    0.000000   0.000000   0.000000   0.000000
    8.000000    0.035227    0.009785    0.000000   0.000000   0.000000   0.000000
    9.000000    0.035227    0.009785    0.000000   0.000000   0.000000   0.000000
   10.000000    0.035225    0.009784    0.000000   0.000000   0.000001   0.000000
   11.000000    0.035012    0.009634    0.000000   0.000000   0.000104   0.000000
   12.000000    0.034814    0.009548    0.000000   0.000000   0.000198   0.000000
   13.000000    0.034621    0.009499    0.000000   0.000000   0.000290   0.000000
   14.000000    0.034428    0.009461    0.000000   0.000000   0.000382   0.000000
   15.000000    0.034232    0.009423    0.000000   0.000000   0.000476   0.000000
   16.000000    0.034033    0.009383    0.000000   0.000000   0.000570   0.000000
   17.000000    0.033830    0.009341    0.000000   0.000000   0.000667   0.000000
   18.000000    0.033622    0.009296    0.000000   0.000000   0.000766   0.000001
   19.000000    0.033410    0.009249    0.000000   0.000000   0.000868   0.000001
   20.000000    0.033194    0.009201    0.000000   0.000000   0.000971   0.000001
   21.000000    0.033194    0.009238    0.000000   0.000000   0.000971   0.000001
   22.000000    0.033194    0.009244    0.000000   0.000000   0.000971   0.000001
   23.000000    0.033194    0.009246    0.000000   0.000000   0.000971   0.000001
