,C/O ratio,CH4 in,CH4 out,CO out,H2 out,H2O out,CO2 out,Exit temp,Max temp,Dist to max temp,O2 conv
0,0.6000000000000001,0.04220610931192466,3.9676281605439526e-05,0.0380384617987276,0.05950623499083521,0.024547302919970544,0.003877916717815616,1826.901715491387,1955.6016750086312,13.55,0.9999999936146923
1,0.7000000000000002,0.04764223879568619,0.0007397643649306755,0.038548325071042555,0.0673925115849334,0.021871110860247747,0.003820317323515853,1639.3193363860953,1910.3981932097977,12.820000000000002,0.9999999999175277
2,0.8,0.05273657570711542,0.004256230858146833,0.03748142197715464,0.06887846139519158,0.02086383680152886,0.003787591608733783,1538.7774600311568,1876.944492909445,12.33,0.9999999999936029
3,0.8999999999999999,0.05752037248751414,0.00931492595773968,0.03488615506294822,0.06538049039697677,0.02147438597752211,0.0037752711362679914,1495.358551488869,1848.9704165544058,11.99,0.9999999999975587
4,1.0,0.06202118410625546,0.015288842787307537,0.03278175152253327,0.061559660030331684,0.021702348667736498,0.0037682480250556785,1467.8388653843601,1823.2120961653227,11.74,0.9999999999986264
5,1.1,0.0662633991614029,0.021652215699888948,0.031125574415939446,0.057889333267746486,0.021581679638865515,0.0037657404885594933,1448.0510002375593,1799.104680809844,11.540000000000001,0.9999999999990832
6,1.1999999999999995,0.07026868199272561,0.027647130635994333,0.029644356110139884,0.05442409400626557,0.02153034827324247,0.003770350497543047,1433.8155087637674,1776.618270012593,11.39,0.999999999999288
7,1.3000000000000003,0.07405634272972031,0.03337014890536247,0.02709802473063296,0.04917254028694252,0.02232211827714073,0.0037726126344215937,1427.3644560221364,1752.1947807756019,11.28,0.9999999999991844
8,1.3999999999999995,0.07764364861664726,0.03887521361860013,0.024934829827393784,0.044420662926144695,0.022973711767405307,0.0037749736159405347,1423.7570425714632,1728.3534726227356,11.19,0.9999999999989884
9,1.6000000000000003,0.08427758988601221,0.04950110913349248,0.021088688659441922,0.03545272105435659,0.024040727728804934,0.0037726723318124563,1420.9640824035139,1679.144528494387,11.06,0.9999999999980946
10,1.7999999999999998,0.09027684884714632,0.062268384045673,0.023515125253220463,0.03606882354116622,0.01908392268184926,0.0037769635340087716,1383.0599145771948,1627.7087864242212,10.97,0.9999999999996879
11,2.0,0.09572834938139431,0.0706535840918056,0.020466648645329998,0.02926771408529551,0.019851145016517587,0.0037727358959889334,1377.280989266251,1576.1479174558883,10.920000000000002,0.9999999999995455
12,2.2,0.10070383531597825,0.07824782547070622,0.017800093234447797,0.023316846636102243,0.020458064867658707,0.0037577011460703568,1370.540536273564,1527.2865021956918,10.870000000000001,0.9999999999993562
13,2.4,0.10526304553491962,0.08507885785014897,0.015623700305902707,0.01851381754631286,0.0207696470950921,0.0037327540894203193,1360.3656937099165,1482.636553757396,10.830000000000002,0.9999999999992322
14,2.6000000000000005,0.10945612414928066,0.09118922637875598,0.013926186090454856,0.014886225098939295,0.020773071390708303,0.0036993874382531327,1346.124527506594,1442.4365771239297,10.790000000000001,0.999999999999269
