,C/O ratio,CH4 in,CH4 out,CO out,H2 out,H2O out,CO2 out,Exit temp,Max temp,Dist to max temp,O2 conv
0,0.6000000000000001,0.04220610931192466,0.04219742689718661,5.488602741688845e-06,1.839852814074835e-09,1.7359498477909992e-05,3.1914845704849594e-06,700.8520685000124,700.8520685000367,20.32,0.00041554801564118226
1,0.7000000000000002,0.04764223879568619,0.04763007981546762,7.1335081367496185e-06,3.793619417384745e-09,2.4309515301136563e-05,5.022371076846857e-06,701.1835587093278,701.1835587093337,63.91000000000001,0.0006095739289865591
2,0.8,0.05273657570711542,0.052720241605559076,8.88502349653831e-06,7.181975606945175e-09,3.265506580527758e-05,7.445107846573421e-06,701.5784314560145,701.5784314560186,67.71000000000001,0.0008560336613044171
3,0.8999999999999999,0.05752037248751414,0.05749911486680875,1.0715708048098102e-05,1.2732400728234205e-08,4.249511130119976e-05,1.0536980861534686e-05,702.0404709919063,702.0404709919187,27.850000000000005,0.001162307379167981
4,1.0,0.06202118410625546,0.061994200026023454,1.2605177565978853e-05,2.1427612665846148e-08,5.3937757623686927e-05,1.4372919193549793e-05,702.5737139131119,702.5737139131401,20.150000000000002,0.00153639175186307
5,1.1,0.0662633991614029,0.06622982457697991,1.4540379886406542e-05,3.457316789694656e-08,6.710390966911068e-05,1.9027080546196726e-05,703.182611017173,703.1826110171778,63.59000000000001,0.001987045224143022
6,1.1999999999999995,0.07026868199272561,0.07022758288120753,1.6515555659378156e-05,5.3884968247319174e-08,8.213180824366098e-05,2.457520266136008e-05,703.8722361338145,703.8722361338204,61.50000000000001,0.0025239894579475184
7,1.3000000000000003,0.07405634272972031,0.07400670334659579,1.8532034669438793e-05,8.160540764816417e-08,9.918265258605973e-05,3.109767630729368e-05,704.6485436125521,704.6485436125713,20.100000000000005,0.003158178604957489
8,1.3999999999999995,0.07764364861664726,0.07758435615058339,2.0598024519517806e-05,1.2066116028500316e-07,0.00011844764606736775,3.868335830410687e-05,705.5186833660066,705.518683366019,20.25,0.003902153881445924
9,1.6000000000000003,0.08427758988601221,0.08419515873708862,2.49456891749701e-05,2.49313429335592e-07,0.00016459168533253504,5.747126039461303e-05,707.5774899885304,707.5774899885865,20.060000000000002,0.005780516457361636
10,1.7999999999999998,0.09027684884714632,0.09016503367965502,2.9768654888591686e-05,4.879884981949705e-07,0.00022311571146693343,8.202875597298475e-05,710.1477301411464,710.1477301411551,67.39,0.008313267486445964
11,2.0,0.09572834938139431,0.09557883993111228,3.5434649330705564e-05,9.252382921870064e-07,0.000298060881445352,0.00011405294713218499,713.3895602142737,713.3895602144818,22.770000000000003,0.011733233969289915
12,2.2,0.10070383531597825,0.10050479794550654,4.2593702996128856e-05,1.7385584502688788e-06,0.0003962961879308509,0.00015641700452181256,717.5782041216002,717.5782041217063,21.36,0.01642234299840836
13,2.4,0.10526304553491962,0.10499598362497989,5.253555514124815e-05,3.335117808482058e-06,0.0005307399554256278,0.00021449385715509282,723.2327870336239,723.2327870336266,56.84,0.023079630351524147
14,2.6000000000000005,0.10945612414928066,0.10908770882554003,6.838968053043742e-05,6.878626895481197e-06,0.0007298920199412147,0.0002999856429539386,731.4947591261337,731.4947591261418,20.05,0.03321384130463208
