,C/O ratio,CH4 in,CH4 out,CO out,H2 out,H2O out,CO2 out,Exit temp,Max temp,Dist to max temp,O2 conv
0,0.6000000000000001,0.04220610931192466,0.00024582620626985524,0.03572624637103524,0.0571401772995928,0.02521093639621451,0.004701880648233665,1848.7074289615562,1949.3895186493628,12.860000000000001,0.9999999912797811
1,0.7000000000000002,0.04764223879568619,0.0008998406110034632,0.033006977128149165,0.058926190847951074,0.025556844636216783,0.004747908341293797,1706.3727606767984,1906.6593288663244,12.3,0.9999999995765455
2,0.8,0.05273657570711542,0.0033247048754217355,0.030854455080337122,0.05959327596952112,0.025463127590707808,0.004801302105705233,1608.6787026204029,1876.307778150054,11.930000000000001,0.9999999999648198
3,0.8999999999999999,0.05752037248751414,0.008334590838971387,0.027439385658055333,0.05473794152657772,0.02673502839074134,0.00486807641341953,1573.9262097026208,1848.9211775440433,11.66,0.9999999999884099
4,1.0,0.06202118410625546,0.014167504000714058,0.023596351788213395,0.047808349436597466,0.028541815163662002,0.004940639822004116,1565.0840672894099,1823.9119023761903,11.46,0.9999999999952612
5,1.1,0.0662633991614029,0.019590597299856564,0.019962878383874116,0.04133162804323093,0.03024861149967289,0.00501265536831571,1556.6689368755642,1800.7818415970974,11.31,0.9999997486788689
6,1.1999999999999995,0.07026868199272561,0.024754361515821676,0.01757847709264059,0.03725895202489457,0.03081852215365398,0.005077988924118877,1536.9226677901597,1777.6628911920834,11.19,0.999981109489872
7,1.2999999999999998,0.0740563427297203,0.03047424008250302,0.016366382819528347,0.03464439066523977,0.030319792574748997,0.005136853762584735,1515.9232959530395,1755.8332488953479,11.1,0.999945118048657
8,1.3999999999999995,0.07764364861664726,0.03624192081487911,0.015486674781821473,0.032353823492053145,0.029574973990041453,0.005191461672008489,1497.3571831039067,1733.8627652011944,11.030000000000001,0.9997903562676458
9,1.6000000000000003,0.08427758988601221,0.04623845787080277,0.01243089573391112,0.0260455526868489,0.02949659046041469,0.0052981162844632605,1471.58783772591,1688.2657302326613,10.93,0.9971486184538867
10,1.7999999999999998,0.09027684884714632,0.05601862323215308,0.010383760018300152,0.02093576683775883,0.028779258946508464,0.005381717807000351,1450.8658847538293,1640.4408159982806,10.870000000000001,0.99555884209221
11,2.0,0.09572834938139431,0.06529821577431758,0.009089476214668945,0.0168118517292498,0.02774957392167234,0.005439727935805662,1434.7814573236387,1591.8370488631701,10.820000000000002,0.9970598056529123
12,2.2000000000000006,0.10070383531597826,0.07413443196245428,0.00827350098966436,0.013297503397429591,0.026522498036092333,0.005470785104220106,1421.7175193622923,1544.7037542830058,10.790000000000001,0.9993073104117964
13,2.4,0.10526304553491962,0.08505020984572195,0.01380080973621383,0.02006668310430051,0.019136286364711996,0.005460838618268512,1366.1141106718076,1500.8094369142023,10.76,0.9999999999999203
14,2.6,0.10945612414928066,0.0912555180222255,0.01192576441631363,0.01609971352171571,0.019229706626228343,0.005471212604063371,1354.4857106952566,1460.8606554070598,10.730000000000002,0.9999999999999095
