,C/O ratio,CH4 in,CH4 out,CO out,H2 out,H2O out,CO2 out,Exit temp,Max temp,Dist to max temp,O2 conv
0,0.6000000000000001,0.04220610931192466,2.8348703923128957e-05,0.03794126059759583,0.059865025376359245,0.024283397178304487,0.004058489746372667,1826.3934741620353,1951.3355185471744,12.610000000000001,0.9999999938169808
1,0.7000000000000002,0.04764223879568619,0.0007954860023638177,0.042722274055301615,0.07504420847239215,0.018126411117323667,0.0036057694448972033,1581.0931787732234,1900.4318263598036,12.090000000000002,0.9999999999862145
2,0.7999999999999998,0.05273657570711541,0.005340660093147371,0.0434294339166998,0.07882154301072997,0.015497086430628524,0.0034970352690306644,1469.548256369304,1861.9623742262766,11.74,0.9999999999994758
3,0.8999999999999999,0.057520372487514126,0.011036599400742397,0.04258436497207973,0.07812643015110679,0.014423799275376433,0.003510641083794995,1414.7339408648459,1829.4252362748339,11.510000000000002,0.9999999999999039
4,0.9999999999999999,0.06202118410625546,0.017082171924286488,0.04112108577365703,0.07581629632541668,0.013790258030054486,0.0035547085503214687,1377.125195490312,1797.51367653888,11.340000000000002,0.9999999999999705
5,1.1000000000000005,0.06626339916140292,0.022855077698164382,0.039616598943966366,0.07322724652695323,0.013399073848530106,0.00361156539543378,1349.5022455245987,1767.2947775187897,11.22,0.9999999999999877
6,1.1999999999999995,0.07026868199272561,0.02839887973698048,0.03807862363155615,0.07047663420311275,0.013132080586264723,0.0036730824238891805,1327.3905980595994,1737.6670222603439,11.120000000000001,0.999999999999994
7,1.3000000000000003,0.07405634272972031,0.03367812827193532,0.03656759947769634,0.06773983723971073,0.01292895897111669,0.0037346145082687754,1308.5660216059694,1707.801268267882,11.05,0.9999999999999967
8,1.3999999999999995,0.07764364861664726,0.038702700294850845,0.03509504768682728,0.06504266089341662,0.01277726603726987,0.0037954649473437236,1292.4138238783262,1677.9276263155307,10.990000000000002,0.999999999999998
9,1.6000000000000005,0.08427758988601222,0.04804889221067469,0.032294224668936514,0.05986911463908351,0.01255788391632489,0.003909959390111374,1265.4296794203947,1618.9244871993212,10.900000000000002,0.9999999999999992
10,1.8,0.09027684884714632,0.05653180018567521,0.029718379965032123,0.05506073040271156,0.012409728674948457,0.004012709558818332,1243.6881154416376,1563.909275727003,10.84,0.9999999999999996
11,2.0,0.09572834938139431,0.06424961146325238,0.02736578727004811,0.05063783829506235,0.012300484492169974,0.004102730628743368,1225.549120155085,1514.4541857913919,10.8,0.9999999999999997
12,2.2,0.10070383531597825,0.07132112220523971,0.025196353716599187,0.04653970297065747,0.012217049443166034,0.004180531894121567,1210.0281877282603,1470.2629261769468,10.77,0.9999999999999999
13,2.4,0.10526304553491962,0.07779518161993722,0.023216987748349897,0.042781335840929816,0.012148890507267595,0.0042466967237679435,1196.5173823556172,1431.0484824177238,10.75,0.9999999999999999
14,2.6000000000000005,0.10945612414928066,0.08374301081797438,0.021408320036659108,0.039336904152108075,0.012086332310611595,0.004301519035203845,1184.446588271872,1395.9764689220551,10.730000000000002,1.0
