,C/O ratio,CH4 in,CH4 out,CO out,H2 out,H2O out,CO2 out,Exit temp,Max temp,Dist to max temp,O2 conv
0,0.6000000000000001,0.04220610931192466,3.617009657411429e-05,0.037876933368067044,0.0597507902490112,0.024332716356254343,0.004065982176842478,1827.1914675492737,1961.4908076058857,12.55,0.9999999936980694
1,0.7000000000000002,0.04764223879568619,0.0009799900257543607,0.04227433855861641,0.07409209407261318,0.018488398042491673,0.0036487291707285327,1589.956252287502,1916.3435952300829,12.010000000000002,0.9999999999819092
2,0.8,0.05273657570711542,0.0060561019706306994,0.04232255332828384,0.07622360162150803,0.01638194185349805,0.0036080053387202754,1494.4457677723979,1883.1804481319944,11.66,0.9999999999987537
3,0.8999999999999999,0.05752037248751414,0.0123622222945091,0.04079038291282592,0.0738818486977075,0.015744861639493967,0.0036880106347777493,1452.3811022583268,1854.9094757285814,11.410000000000002,0.9999999999996045
4,1.0,0.06202118410625546,0.018757346606782927,0.038866188584315696,0.07036330737517571,0.01555191842325989,0.003801369699663376,1427.5747824346192,1829.8170038662058,11.240000000000002,0.9999999999997866
5,1.1,0.0662633991614029,0.024969049017682342,0.03684881884650764,0.06650892979045435,0.015536821542035886,0.003926737996669473,1410.4534153757413,1806.0712123682633,11.1,0.9999999999998532
6,1.1999999999999995,0.07026868199272561,0.030919896701568198,0.03483750970472693,0.06260440544030375,0.015605570610294188,0.0040568881517951925,1397.5164003639181,1783.2290349831794,11.000000000000002,0.9999999999998846
7,1.2999999999999998,0.0740563427297203,0.03658559875972201,0.03287806677515341,0.058782332083467934,0.015711552359552686,0.0041882050018808795,1387.0238002479293,1760.5087399496372,10.920000000000002,0.9999999999999023
8,1.3999999999999995,0.07764364861664726,0.04196225073975991,0.030995802329027048,0.0551151150448933,0.015826942726574495,0.0043183146389200915,1377.959875888889,1737.7370068597777,10.860000000000001,0.9999999999999136
9,1.6000000000000003,0.08427758988601221,0.05189001126983379,0.027498589774955055,0.04834874920355539,0.016034736925419783,0.004569901252753805,1362.1511189383505,1690.9965897624438,10.77,0.9999999999999286
10,1.7999999999999998,0.09027684884714632,0.060783759496999164,0.024413910294488434,0.04248248994226536,0.016139970295181483,0.004799850793444899,1346.9720773343481,1642.688781633838,10.71,0.999999999999942
11,2.0,0.09572834938139431,0.0687404324530847,0.021760313851332924,0.037558440016425776,0.016105757893909063,0.0049989600220572495,1330.949509075588,1594.3404728661596,10.660000000000002,0.9999999999999563
12,2.2000000000000006,0.10070383531597826,0.07584859423874972,0.019526491465264438,0.03354678409927467,0.015926580268118447,0.005160662310191017,1313.4543658380862,1548.1578995585974,10.620000000000001,0.9999999999999701
13,2.4,0.10526304553491962,0.08221622978652572,0.017648102461806293,0.030292532938644947,0.015638838350944574,0.005286298563595912,1294.9790569080742,1505.4565375243353,10.59,0.9999999999999813
14,2.6,0.10945612414928066,0.08794304629259077,0.016056631678566195,0.02762540407287887,0.015288892054592924,0.005381450372098462,1276.3870471379926,1466.6689546622047,10.560000000000002,0.9999999999999888
