This mechanism contains 47 gas reactions and 45 surface reactions
  distance(mm)   X_CH4        X_O2        X_H2       X_CO       X_H2O       X_CO2
    0.000000    0.042711    0.008214    0.000000   0.000000   0.000000   0.000000
    1.000000    0.042711    0.008214    0.000000   0.000000   0.000000   0.000000
    2.000000    0.042711    0.008214    0.000000   0.000000   0.000000   0.000000
    3.000000    0.042711    0.008214    0.000000   0.000000   0.000000   0.000000
    4.000000    0.042711    0.008214    0.000000   0.000000   0.000000   0.000000
    5.000000    0.042711    0.008214    0.000000   0.000000   0.000000   0.000000
    6.000000    0.042711    0.008214    0.000000   0.000000   0.000000   0.000000
    7.000000    0.042711    0.008214    0.000000   0.000000   0.000000   0.000000
    8.000000    0.042711    0.008214    0.000000   0.000000   0.000000   0.000000
    9.000000    0.042711    0.008214    0.000000   0.000000   0.000000   0.000000
   10.000000    0.042706    0.008207    0.000000   0.000000   0.000007   0.000003
   11.000000    0.042149    0.007381    0.000000   0.000000   0.000852   0.000391
   12.000000    0.041685    0.006505    0.000000   0.000002   0.001726   0.000822
   13.000000    0.041313    0.005772    0.000000   0.000006   0.002459   0.001184
   14.000000    0.040995    0.005146    0.000000   0.000015   0.003088   0.001490
   15.000000    0.040717    0.004597    0.000000   0.000028   0.003643   0.001754
   16.000000    0.040463    0.004102    0.000000   0.000047   0.004148   0.001987
   17.000000    0.040226    0.003641    0.000000   0.000073   0.004622   0.002198
   18.000000    0.039995    0.003198    0.000000   0.000108   0.005082   0.002393
   19.000000    0.039761    0.002758    0.000000   0.000155   0.005547   0.002577
   20.000000    0.039513    0.002301    0.000000   0.000223   0.006039   0.002753
   21.000000    0.039508    0.002301    0.000003   0.000223   0.006039   0.002753
   22.000000    0.039504    0.002301    0.000006   0.000223   0.006040   0.002753
   23.000000    0.039499    0.002301    0.000008   0.000223   0.006040   0.002753
   24.000000    0.039495    0.002301    0.000011   0.000223   0.006041   0.002753
   25.000000    0.039491    0.002301    0.000014   0.000223   0.006041   0.002753
   26.000000    0.039486    0.002301    0.000016   0.000223   0.006042   0.002753
   27.000000    0.039482    0.002301    0.000019   0.000223   0.006042   0.002753
   28.000000    0.039477    0.002301    0.000022   0.000223   0.006043   0.002753
   29.000000    0.039473    0.002301    0.000025   0.000223   0.006043   0.002753
   30.000000    0.039469    0.002301    0.000028   0.000223   0.006044   0.002753
   31.000000    0.039464    0.002301    0.000031   0.000223   0.006044   0.002753
   32.000000    0.039460    0.002301    0.000033   0.000223   0.006045   0.002753
   33.000000    0.039456    0.002301    0.000036   0.000223   0.006045   0.002753
   34.000000    0.039451    0.002301    0.000039   0.000223   0.006046   0.002753
   35.000000    0.039447    0.002301    0.000042   0.000223   0.006046   0.002753
   36.000000    0.039443    0.002301    0.000045   0.000223   0.006047   0.002753
   37.000000    0.039438    0.002301    0.000048   0.000223   0.006047   0.002753
   38.000000    0.039434    0.002301    0.000051   0.000223   0.006048   0.002753
   39.000000    0.039430    0.002301    0.000054   0.000223   0.006048   0.002753
   40.000000    0.039426    0.002301    0.000057   0.000223   0.006049   0.002753
   41.000000    0.039421    0.002301    0.000060   0.000223   0.006049   0.002753
   42.000000    0.039417    0.002301    0.000063   0.000223   0.006049   0.002753
   43.000000    0.039413    0.002301    0.000066   0.000223   0.006050   0.002753
   44.000000    0.039409    0.002301    0.000069   0.000223   0.006050   0.002753
   45.000000    0.039405    0.002301    0.000072   0.000223   0.006051   0.002753
   46.000000    0.039401    0.002301    0.000075   0.000223   0.006051   0.002753
   47.000000    0.039396    0.002301    0.000078   0.000223   0.006052   0.002753
   48.000000    0.039392    0.002301    0.000081   0.000223   0.006052   0.002753
   49.000000    0.039388    0.002301    0.000084   0.000223   0.006052   0.002753
   50.000000    0.039384    0.002301    0.000087   0.000223   0.006053   0.002753
   51.000000    0.039380    0.002301    0.000090   0.000223   0.006053   0.002753
   52.000000    0.039376    0.002301    0.000093   0.000223   0.006053   0.002753
   53.000000    0.039372    0.002301    0.000096   0.000223   0.006054   0.002753
   54.000000    0.039368    0.002301    0.000099   0.000223   0.006054   0.002753
   55.000000    0.039364    0.002301    0.000102   0.000223   0.006055   0.002753
   56.000000    0.039360    0.002301    0.000105   0.000223   0.006055   0.002753
   57.000000    0.039356    0.002301    0.000109   0.000223   0.006055   0.002753
   58.000000    0.039352    0.002301    0.000112   0.000223   0.006056   0.002753
   59.000000    0.039348    0.002301    0.000115   0.000223   0.006056   0.002753
   60.000000    0.039344    0.002301    0.000118   0.000223   0.006056   0.002753
   61.000000    0.039340    0.002301    0.000121   0.000223   0.006057   0.002753
   62.000000    0.039336    0.002301    0.000124   0.000223   0.006057   0.002753
   63.000000    0.039332    0.002301    0.000127   0.000223   0.006057   0.002753
   64.000000    0.039328    0.002301    0.000131   0.000223   0.006058   0.002753
   65.000000    0.039324    0.002301    0.000134   0.000223   0.006058   0.002753
   66.000000    0.039320    0.002301    0.000137   0.000223   0.006058   0.002753
   67.000000    0.039316    0.002301    0.000140   0.000223   0.006059   0.002753
   68.000000    0.039313    0.002301    0.000143   0.000223   0.006059   0.002753
   69.000000    0.039309    0.002301    0.000146   0.000223   0.006059   0.002753
   70.000000    0.039305    0.002301    0.000150   0.000223   0.006060   0.002753
Finished simulation at a C/O ratio of 2.6
  distance(mm)   X_CH4        X_O2        X_H2       X_CO       X_H2O       X_CO2
    0.000000    0.039296    0.008931    0.000000   0.000000   0.000000   0.000000
    1.000000    0.039296    0.008931    0.000000   0.000000   0.000000   0.000000
    2.000000    0.039296    0.008931    0.000000   0.000000   0.000000   0.000000
    3.000000    0.039296    0.008931    0.000000   0.000000   0.000000   0.000000
    4.000000    0.039296    0.008931    0.000000   0.000000   0.000000   0.000000
    5.000000    0.039296    0.008931    0.000000   0.000000   0.000000   0.000000
    6.000000    0.039296    0.008931    0.000000   0.000000   0.000000   0.000000
    7.000000    0.039296    0.008931    0.000000   0.000000   0.000000   0.000000
    8.000000    0.039296    0.008931    0.000000   0.000000   0.000000   0.000000
    9.000000    0.039296    0.008931    0.000000   0.000000   0.000000   0.000000
   10.000000    0.039291    0.008924    0.000000   0.000000   0.000007   0.000003
   11.000000    0.038754    0.008116    0.000000   0.000000   0.000832   0.000384
   12.000000    0.038303    0.007261    0.000000   0.000002   0.001685   0.000805
   13.000000    0.037936    0.006539    0.000000   0.000007   0.002407   0.001161
   14.000000    0.037624    0.005924    0.000000   0.000016   0.003026   0.001461
   15.000000    0.037348    0.005380    0.000000   0.000030   0.003576   0.001722
   16.000000    0.037095    0.004886    0.000000   0.000052   0.004081   0.001953
   17.000000    0.036854    0.004421    0.000000   0.000081   0.004561   0.002163
   18.000000    0.036615    0.003966    0.000000   0.000122   0.005036   0.002359
   19.000000    0.036365    0.003502    0.000000   0.000182   0.005532   0.002546
   20.000000    0.036085    0.002997    0.000000   0.000272   0.006084   0.002729
   21.000000    0.036077    0.002997    0.000005   0.000272   0.006085   0.002729
   22.000000    0.036069    0.002997    0.000010   0.000272   0.006086   0.002729
   23.000000    0.036060    0.002997    0.000015   0.000272   0.006087   0.002729
   24.000000    0.036052    0.002997    0.000019   0.000272   0.006087   0.002729
   25.000000    0.036044    0.002997    0.000024   0.000272   0.006088   0.002729
   26.000000    0.036036    0.002997    0.000029   0.000272   0.006089   0.002729
   27.000000    0.036028    0.002997    0.000034   0.000272   0.006090   0.002729
   28.000000    0.036020    0.002997    0.000039   0.000272   0.006091   0.002729
   29.000000    0.036012    0.002997    0.000044   0.000272   0.006092   0.002729
   30.000000    0.036004    0.002997    0.000050   0.000272   0.006092   0.002729
   31.000000    0.035996    0.002997    0.000055   0.000272   0.006093   0.002729
   32.000000    0.035988    0.002997    0.000060   0.000272   0.006094   0.002729
   33.000000    0.035980    0.002997    0.000065   0.000272   0.006095   0.002729
   34.000000    0.035972    0.002997    0.000071   0.000272   0.006095   0.002729
   35.000000    0.035965    0.002997    0.000076   0.000272   0.006096   0.002729
   36.000000    0.035957    0.002997    0.000081   0.000272   0.006097   0.002729
   37.000000    0.035949    0.002997    0.000087   0.000272   0.006098   0.002729
   38.000000    0.035942    0.002997    0.000092   0.000272   0.006098   0.002729
   39.000000    0.035934    0.002997    0.000098   0.000272   0.006099   0.002729
   40.000000    0.035927    0.002997    0.000103   0.000272   0.006100   0.002729
   41.000000    0.035919    0.002997    0.000109   0.000272   0.006100   0.002729
   42.000000    0.035912    0.002997    0.000114   0.000272   0.006101   0.002729
   43.000000    0.035904    0.002997    0.000120   0.000272   0.006101   0.002729
   44.000000    0.035897    0.002997    0.000125   0.000272   0.006102   0.002729
   45.000000    0.035890    0.002997    0.000131   0.000272   0.006103   0.002729
   46.000000    0.035882    0.002997    0.000136   0.000272   0.006103   0.002729
   47.000000    0.035875    0.002997    0.000142   0.000272   0.006104   0.002729
   48.000000    0.035868    0.002997    0.000148   0.000272   0.006104   0.002729
   49.000000    0.035861    0.002997    0.000153   0.000272   0.006105   0.002729
   50.000000    0.035854    0.002997    0.000159   0.000272   0.006105   0.002729
   51.000000    0.035847    0.002997    0.000165   0.000272   0.006106   0.002729
   52.000000    0.035840    0.002997    0.000170   0.000272   0.006106   0.002729
   53.000000    0.035833    0.002997    0.000176   0.000272   0.006107   0.002729
   54.000000    0.035826    0.002997    0.000182   0.000272   0.006107   0.002729
   55.000000    0.035819    0.002997    0.000188   0.000272   0.006108   0.002729
   56.000000    0.035812    0.002997    0.000193   0.000272   0.006108   0.002729
   57.000000    0.035805    0.002997    0.000199   0.000272   0.006109   0.002729
   58.000000    0.035799    0.002997    0.000205   0.000272   0.006109   0.002729
   59.000000    0.035792    0.002997    0.000211   0.000272   0.006109   0.002729
   60.000000    0.035785    0.002997    0.000216   0.000272   0.006110   0.002729
   61.000000    0.035778    0.002997    0.000222   0.000272   0.006110   0.002729
   62.000000    0.035772    0.002997    0.000228   0.000272   0.006111   0.002729
   63.000000    0.035765    0.002997    0.000233   0.000272   0.006111   0.002729
   64.000000    0.035759    0.002997    0.000239   0.000272   0.006112   0.002729
   65.000000    0.035752    0.002997    0.000245   0.000272   0.006112   0.002729
   66.000000    0.035746    0.002997    0.000251   0.000272   0.006112   0.002729
   67.000000    0.035739    0.002997    0.000256   0.000272   0.006113   0.002729
   68.000000    0.035733    0.002997    0.000262   0.000272   0.006113   0.002729
   69.000000    0.035727    0.002997    0.000268   0.000272   0.006113   0.002729
   70.000000    0.035720    0.002997    0.000274   0.000272   0.006114   0.002729
Finished simulation at a C/O ratio of 2.2
  distance(mm)   X_CH4        X_O2        X_H2       X_CO       X_H2O       X_CO2
    0.000000    0.041075    0.008557    0.000000   0.000000   0.000000   0.000000
    1.000000    0.041075    0.008557    0.000000   0.000000   0.000000   0.000000
    2.000000    0.041075    0.008557    0.000000   0.000000   0.000000   0.000000
    3.000000    0.041075    0.008557    0.000000   0.000000   0.000000   0.000000
    4.000000    0.041075    0.008557    0.000000   0.000000   0.000000   0.000000
    5.000000    0.041075    0.008557    0.000000   0.000000   0.000000   0.000000
    6.000000    0.041075    0.008557    0.000000   0.000000   0.000000   0.000000
    7.000000    0.041075    0.008557    0.000000   0.000000   0.000000   0.000000
    8.000000    0.041075    0.008557    0.000000   0.000000   0.000000   0.000000
    9.000000    0.041075    0.008557    0.000000   0.000000   0.000000   0.000000
   10.000000    0.041070    0.008551    0.000000   0.000000   0.000007   0.000003
   11.000000    0.040522    0.007732    0.000000   0.000000   0.000844   0.000388
   12.000000    0.040064    0.006865    0.000000   0.000002   0.001708   0.000815
   13.000000    0.039694    0.006138    0.000000   0.000006   0.002435   0.001173
   14.000000    0.039379    0.005516    0.000000   0.000015   0.003061   0.001477
   15.000000    0.039101    0.004969    0.000000   0.000029   0.003614   0.001740
   16.000000    0.038847    0.004473    0.000000   0.000049   0.004120   0.001973
   17.000000    0.038608    0.004009    0.000000   0.000077   0.004598   0.002183
   18.000000    0.038372    0.003560    0.000000   0.000115   0.005066   0.002379
   19.000000    0.038130    0.003107    0.000000   0.000169   0.005547   0.002565
   20.000000    0.037867    0.002627    0.000000   0.000247   0.006069   0.002746
   21.000000    0.037861    0.002627    0.000004   0.000247   0.006069   0.002746
   22.000000    0.037854    0.002627    0.000007   0.000247   0.006070   0.002746
   23.000000    0.037848    0.002627    0.000011   0.000247   0.006071   0.002746
   24.000000    0.037842    0.002627    0.000015   0.000247   0.006071   0.002746
   25.000000    0.037836    0.002627    0.000018   0.000247   0.006072   0.002746
   26.000000    0.037830    0.002627    0.000022   0.000247   0.006073   0.002746
   27.000000    0.037824    0.002627    0.000026   0.000247   0.006074   0.002746
   28.000000    0.037818    0.002627    0.000030   0.000247   0.006074   0.002746
   29.000000    0.037812    0.002627    0.000033   0.000247   0.006075   0.002746
   30.000000    0.037806    0.002627    0.000037   0.000247   0.006075   0.002746
   31.000000    0.037800    0.002627    0.000041   0.000247   0.006076   0.002746
   32.000000    0.037794    0.002627    0.000045   0.000247   0.006077   0.002746
   33.000000    0.037789    0.002627    0.000049   0.000247   0.006077   0.002746
   34.000000    0.037783    0.002627    0.000053   0.000247   0.006078   0.002746
   35.000000    0.037777    0.002627    0.000057   0.000247   0.006078   0.002746
   36.000000    0.037771    0.002627    0.000061   0.000247   0.006079   0.002746
   37.000000    0.037765    0.002627    0.000065   0.000247   0.006080   0.002746
   38.000000    0.037760    0.002627    0.000069   0.000247   0.006080   0.002746
   39.000000    0.037754    0.002627    0.000073   0.000247   0.006081   0.002746
   40.000000    0.037748    0.002627    0.000077   0.000247   0.006081   0.002746
   41.000000    0.037742    0.002627    0.000081   0.000247   0.006082   0.002746
   42.000000    0.037737    0.002627    0.000085   0.000247   0.006082   0.002746
   43.000000    0.037731    0.002627    0.000089   0.000247   0.006083   0.002746
   44.000000    0.037726    0.002627    0.000093   0.000247   0.006083   0.002746
   45.000000    0.037720    0.002627    0.000097   0.000247   0.006084   0.002746
   46.000000    0.037714    0.002627    0.000101   0.000247   0.006084   0.002746
   47.000000    0.037709    0.002627    0.000105   0.000247   0.006085   0.002746
   48.000000    0.037703    0.002627    0.000110   0.000247   0.006085   0.002746
   49.000000    0.037698    0.002627    0.000114   0.000247   0.006086   0.002746
   50.000000    0.037693    0.002627    0.000118   0.000247   0.006086   0.002746
   51.000000    0.037687    0.002627    0.000122   0.000247   0.006087   0.002746
   52.000000    0.037682    0.002627    0.000126   0.000247   0.006087   0.002746
   53.000000    0.037676    0.002627    0.000131   0.000247   0.006088   0.002746
   54.000000    0.037671    0.002627    0.000135   0.000247   0.006088   0.002746
   55.000000    0.037666    0.002627    0.000139   0.000247   0.006088   0.002746
   56.000000    0.037660    0.002627    0.000143   0.000247   0.006089   0.002746
   57.000000    0.037655    0.002627    0.000148   0.000247   0.006089   0.002746
   58.000000    0.037650    0.002627    0.000152   0.000247   0.006090   0.002746
   59.000000    0.037644    0.002627    0.000156   0.000247   0.006090   0.002746
   60.000000    0.037639    0.002627    0.000160   0.000247   0.006091   0.002746
   61.000000    0.037634    0.002627    0.000165   0.000247   0.006091   0.002746
   62.000000    0.037629    0.002627    0.000169   0.000247   0.006091   0.002746
   63.000000    0.037624    0.002627    0.000173   0.000247   0.006092   0.002746
   64.000000    0.037619    0.002627    0.000178   0.000247   0.006092   0.002746
   65.000000    0.037614    0.002627    0.000182   0.000247   0.006092   0.002746
   66.000000    0.037608    0.002627    0.000186   0.000247   0.006093   0.002746
   67.000000    0.037603    0.002627    0.000191   0.000247   0.006093   0.002746
   68.000000    0.037598    0.002627    0.000195   0.000247   0.006093   0.002746
   69.000000    0.037593    0.002627    0.000199   0.000247   0.006094   0.002746
   70.000000    0.037588    0.002627    0.000203   0.000247   0.006094   0.002746
Finished simulation at a C/O ratio of 2.4
  distance(mm)   X_CH4        X_O2        X_H2       X_CO       X_H2O       X_CO2
    0.000000    0.028898    0.011115    0.000000   0.000000   0.000000   0.000000
    1.000000    0.028898    0.011115    0.000000   0.000000   0.000000   0.000000
    2.000000    0.028898    0.011115    0.000000   0.000000   0.000000   0.000000
    3.000000    0.028898    0.011115    0.000000   0.000000   0.000000   0.000000
    4.000000    0.028898    0.011115    0.000000   0.000000   0.000000   0.000000
    5.000000    0.028898    0.011115    0.000000   0.000000   0.000000   0.000000
    6.000000    0.028898    0.011115    0.000000   0.000000   0.000000   0.000000
    7.000000    0.028898    0.011115    0.000000   0.000000   0.000000   0.000000
    8.000000    0.028898    0.011115    0.000000   0.000000   0.000000   0.000000
    9.000000    0.028898    0.011115    0.000000   0.000000   0.000000   0.000000
   10.000000    0.028893    0.011109    0.000000   0.000000   0.000006   0.000003
   11.000000    0.028446    0.010405    0.000000   0.000000   0.000721   0.000337
   12.000000    0.028056    0.009661    0.000000   0.000002   0.001463   0.000704
   13.000000    0.027736    0.009031    0.000000   0.000006   0.002093   0.001015
   14.000000    0.027456    0.008480    0.000000   0.000014   0.002648   0.001284
   15.000000    0.027206    0.007989    0.000000   0.000029   0.003146   0.001518
   16.000000    0.026974    0.007536    0.000000   0.000050   0.003609   0.001728
   17.000000    0.026749    0.007103    0.000000   0.000081   0.004058   0.001921
   18.000000    0.026519    0.006669    0.000000   0.000127   0.004514   0.002103
   19.000000    0.026266    0.006208    0.000000   0.000198   0.005013   0.002280
   20.000000    0.025953    0.005666    0.000000   0.000318   0.005620   0.002459
   21.000000    0.025939    0.005666    0.000008   0.000318   0.005622   0.002459
   22.000000    0.025926    0.005666    0.000015   0.000318   0.005623   0.002459
   23.000000    0.025912    0.005666    0.000023   0.000318   0.005624   0.002459
