,C/O ratio,CH4 in,CH4 out,CO out,H2 out,H2O out,CO2 out,Exit temp,Max temp,Dist to max temp,O2 conv
0,0.6000000000000001,0.04220610931192466,4.2786836549701086e-05,0.03954156816995999,0.05788968542584294,0.026124877483553115,0.0023375503025340706,1822.0667938871254,1953.4695763246186,14.530000000000001,0.9999999930034817
1,0.7000000000000002,0.04764223879568619,0.0014251979170659965,0.04333852405765715,0.07153319640731994,0.02025159742513679,0.002235010752281331,1596.2899473228124,1907.7294768005308,13.580000000000002,0.9999999999739209
2,0.8,0.05273657570711542,0.006579822529644016,0.04275537724307305,0.07230397941104498,0.018788920262929967,0.002188072643773088,1510.8784389935533,1873.8114883623157,12.940000000000001,0.9999999999973872
3,0.9000000000000001,0.05752037248751414,0.0126159189538283,0.04099289431662247,0.0693668624523772,0.018666864385233486,0.0021634117685736163,1471.5085140087401,1845.3938458878577,12.490000000000002,0.9999999999990127
4,1.0,0.06202118410625546,0.018870419357192473,0.03877773364098284,0.06511440507156865,0.018943170471581613,0.0021498992940760025,1447.357039386448,1818.6495795756298,12.16,0.9999999999994001
5,1.1000000000000005,0.06626339916140292,0.024890666666786895,0.03653902570663551,0.06061378071181959,0.01941105390895503,0.002144388066981504,1431.6286281887947,1793.5857623512902,11.91,0.999999999999525
6,1.1999999999999995,0.07026868199272561,0.030742410442189037,0.03439637463398515,0.056148892347241804,0.0198732822289255,0.0021434425670096707,1419.9982668971995,1768.8008050069593,11.72,0.9999999999995753
7,1.3000000000000003,0.07405634272972031,0.03670411439305502,0.03269955438026248,0.05215826100334139,0.01997877961606248,0.0021436533540624813,1410.4013299081257,1744.3175719636963,11.56,0.999999999999615
8,1.3999999999999995,0.07764364861664726,0.04304585940778539,0.03189939225557896,0.049231199830505765,0.01932386367660428,0.0021452216908120483,1401.215050302848,1719.774849354806,11.440000000000001,0.9999999999996859
9,1.6000000000000005,0.08427758988601222,0.05328275330183908,0.028204732963520926,0.04108945019739458,0.020154688075907198,0.002156603816856448,1391.2014974276442,1667.143373530895,11.270000000000001,0.9999999999996173
10,1.7999999999999998,0.09027684884714632,0.06245769319440779,0.024880094995104705,0.03373348541231953,0.020967340331904883,0.0021694053588551423,1384.1036740251354,1613.6397259716791,11.15,0.9999999999994762
11,2.0,0.09572834938139431,0.07084271810449361,0.021843798186274698,0.02704098050313918,0.021661530490642827,0.00217890426509475,1377.1520531844774,1560.2724803160013,11.070000000000002,0.9999999999992628
12,2.2000000000000006,0.10070383531597826,0.07835833371278896,0.019298004192657602,0.021476744418232427,0.022108699415562472,0.0021834127300334643,1368.0227381364025,1511.1207777561362,11.000000000000002,0.9999999999990673
13,2.4,0.10526304553491961,0.08509426753641389,0.01726040625077422,0.017131019045728977,0.022236970649681075,0.00218077316354676,1355.0543839919258,1466.735862514989,10.94,0.9999999999990381
14,2.6,0.10945612414928066,0.0910832112044036,0.015688086159085207,0.013967600416072996,0.022066472546424052,0.0021721864835314727,1337.9780347675062,1427.009402794258,10.89,0.9999999999992146
