,C/O ratio,CH4 in,CH4 out,CO out,H2 out,H2O out,CO2 out,Exit temp,Max temp,Dist to max temp,O2 conv
0,0.6000000000000001,0.04220610931192466,3.984095350798083e-05,0.03784789917046875,0.05969592873525512,0.024357080899180993,0.004068311509403115,1827.5611415764088,1963.5457151409119,12.530000000000001,0.9999999936410509
1,0.7000000000000002,0.04764223879568619,0.0009938898620223435,0.04216416019721143,0.0738790736479004,0.01858433902430842,0.0036558477546599984,1591.7239798096875,1919.859781007306,11.99,0.9999999999808725
2,0.8,0.05273657570711542,0.006126044820968793,0.04213721445611457,0.07581195931033931,0.016547741502695355,0.003617783959824625,1498.0239835085545,1888.165817036892,11.64,0.9999999999985868
3,0.8999999999999999,0.05752037248751414,0.012507650920534135,0.04051457543573447,0.07323032832639892,0.015989825160131785,0.003703425590990274,1458.0815147255473,1861.8693688254457,11.4,0.9999999999995114
4,1.0,0.06202118410625546,0.01898072105326732,0.03849671595027676,0.06946768742541976,0.01587587425771343,0.003824125486115929,1435.3374695182195,1838.1965776645973,11.22,0.9999999999997119
5,1.1,0.0662633991614029,0.025275311100870026,0.036377684383826374,0.06535392446045446,0.015943743855850855,0.003958812115431854,1420.3258857569283,1816.1225693255533,11.090000000000002,0.9999999999997822
6,1.1999999999999995,0.07026868199272561,0.03131147898870144,0.034258245371552795,0.06117971555985137,0.016098105178302412,0.004100217539715354,1409.5081588528108,1794.7913064108006,10.990000000000002,0.9999999999998112
7,1.2999999999999998,0.0740563427297203,0.03706744306036789,0.03217994471417273,0.057068222263856515,0.016295499056033225,0.004245242122451758,1401.231558835856,1774.0977218909095,10.910000000000002,0.9999999999998218
8,1.3999999999999995,0.07764364861664726,0.04254329630285214,0.03016165853469575,0.05307724660767778,0.016512808838142542,0.004392379158900877,1394.6053267749182,1753.4445392170592,10.84,0.9999999999998225
9,1.6000000000000003,0.08427758988601221,0.05269468776230904,0.026337353179886596,0.04555873680376915,0.01695559396660656,0.004689986055009711,1384.34910033619,1710.9909890806584,10.76,0.9999999999998054
10,1.7999999999999998,0.09027684884714632,0.06186803699223556,0.02282089538695369,0.0387337765014471,0.01735472456611427,0.004988660939709062,1376.1814834290856,1666.5316367637286,10.700000000000001,0.9999999999997716
11,2.0,0.09572834938139431,0.07016533252639821,0.019640678011108883,0.03266610212612238,0.017657173267266797,0.005282749615406236,1368.5130038144264,1620.1712672634628,10.660000000000002,0.9999999999997301
12,2.2000000000000006,0.10070383531597826,0.07765392394778099,0.016861635187459482,0.027483514364241336,0.01779835033126218,0.005556988488409089,1359.5696960406572,1573.963525586765,10.63,0.9999999999997039
13,2.4,0.10526304553491962,0.08440821377053458,0.01449586568966742,0.023191536576734603,0.017767212310421367,0.005798038250416493,1348.6277659075508,1529.9345888973128,10.610000000000001,0.9999999999997096
14,2.6,0.10945612414928066,0.09046471345127732,0.012566617031017566,0.019820349263605288,0.01755713428967815,0.005987262066077342,1334.8377299246995,1489.1876305437481,10.58,0.9999999999997564
