,C/O ratio,CH4 in,CH4 out,CO out,H2 out,H2O out,CO2 out,Exit temp,Max temp,Dist to max temp,O2 conv
0,0.6000000000000001,0.04220610931192466,0.0034594707892138285,0.012454995815365985,0.035200594569713854,0.025702003144719814,0.00974429081599477,1752.4907869055949,1959.9527387385272,12.51,0.8195219817712439
1,0.7000000000000002,0.04764223879568619,0.007163440210958728,0.009746288933509565,0.03463595319088326,0.02551976203856604,0.009974875473351972,1669.7820278600689,1919.093523220628,11.99,0.8113106468599803
2,0.8,0.05273657570711542,0.011701483876918916,0.007530511158362872,0.033195631217632235,0.025505278009445107,0.010189170714040102,1613.3600173333834,1887.6973850189524,11.64,0.8103153516454339
3,0.8999999999999999,0.05752037248751414,0.01579361073401528,0.007053419339931214,0.03356765760664198,0.025513735964262277,0.010367957882059547,1582.4307041442023,1862.8274722172007,11.4,0.8340544766854018
4,1.0,0.06202118410625546,0.020402909227666372,0.005948055371479936,0.032487995873394696,0.02553148126925284,0.010537661425187937,1554.5463841334924,1839.6642533827,11.22,0.8474149625031511
5,1.1,0.0662633991614029,0.024518386565024416,0.005764675121409265,0.032574494298605046,0.025510258790537057,0.010676259467246114,1536.830150016667,1818.7722424081892,11.090000000000002,0.8736861318461059
6,1.1999999999999995,0.07026868199272561,0.028764917928880408,0.005418351517157925,0.032147067311494075,0.02545178468507519,0.010797065140790587,1521.2013117347738,1798.3285761760217,10.990000000000002,0.8960002231905422
7,1.2999999999999998,0.0740563427297203,0.03316341634757211,0.004812034885350877,0.031078022155917637,0.02538502990495529,0.010898198652676768,1506.7952192874625,1778.5179898152342,10.910000000000002,0.9127551296973033
8,1.3999999999999995,0.07764364861664726,0.03743843930559279,0.00443960060481132,0.030202760864183043,0.025253052055032792,0.010974794735270523,1495.0735643228109,1758.8869081199425,10.84,0.9312222007634081
9,1.6000000000000003,0.08427758988601221,0.0462171919669814,0.0032653001184400486,0.027249466278070195,0.024924177128495005,0.011067881076048199,1473.8316454045134,1718.9226086952096,10.75,0.9554845880088794
10,1.7999999999999998,0.09027684884714632,0.05478881230616516,0.0026767845556630652,0.02461841571546382,0.024324507796954498,0.011055829961635089,1457.5593300280311,1677.2299043846895,10.700000000000001,0.9793183863926123
11,2.0,0.09572834938139431,0.06351137859224523,0.002163911414673482,0.02147307970385959,0.023501410605455766,0.01093976068763374,1443.1204674138799,1633.1872954216215,10.67,0.9934068029574767
12,2.2000000000000006,0.10070383531597826,0.07767950726534573,0.013292308007075437,0.030274350695960853,0.014716983536329283,0.008882189939670332,1372.2733361696223,1588.0430144864504,10.660000000000002,0.9999999999998332
13,2.4,0.10526304553491962,0.08467811124083119,0.010837301154497733,0.02461958354152551,0.015376960871453868,0.008824970056115046,1367.4017915270197,1543.796146345523,10.650000000000002,0.99999999999975
14,2.6,0.10945612414928066,0.09105182754489759,0.008748655751692596,0.019774830377892596,0.015851940688048367,0.008748667832144837,1360.531482845981,1501.8585975684884,10.64,0.9999999999996573
