,C/O ratio,CH4 in,CH4 out,CO out,H2 out,H2O out,CO2 out,Exit temp,Max temp,Dist to max temp,O2 conv
0,0.6000000000000001,0.04220610931192466,4.3349410842546664e-05,0.039570897091626624,0.05784434012688204,0.02616451703148988,0.0023030646253653923,1822.0160077811831,1953.407722754213,14.76,0.9999999929680261
1,0.7000000000000002,0.04764223879568619,0.0014485448759585658,0.04339756805562296,0.0714394531060808,0.020318179570951857,0.0021721958801691915,1596.446330146025,1907.5247109637874,13.760000000000002,0.9999999999730814
2,0.8,0.05273657570711542,0.006708608367640926,0.0432606061898133,0.0728275101473613,0.01854489400519815,0.0021091375032899064,1509.4374080441244,1874.1134944105047,13.090000000000002,0.9999999999974731
3,0.9000000000000001,0.05752037248751414,0.013056377085004898,0.04177325839457103,0.07014888693003768,0.018121812702992037,0.00206926282210516,1468.6651388067346,1845.18281819051,12.620000000000001,0.999999999999111
4,1.0,0.06202118410625546,0.01949166986481408,0.03991113552013943,0.06629061908120262,0.018146983292115535,0.0020425328534680294,1444.4864295596299,1818.4924294500354,12.270000000000001,0.9999999999994801
5,1.1,0.0662633991614029,0.025898545410690792,0.0378280375545636,0.06181816043460351,0.018366109771543505,0.0020223752234421427,1427.974724787262,1792.4316883047723,12.010000000000002,0.9999999999996092
6,1.1999999999999995,0.07026868199272561,0.03180455888096565,0.035931215128890234,0.05765126933946743,0.018691875352664845,0.0020112235865918852,1416.5996923610928,1768.2542708196263,11.81,0.9999999999996574
7,1.3000000000000003,0.07405634272972031,0.037654222674479106,0.033894409929484025,0.05316983856347371,0.019069870410378005,0.002000729022965994,1407.6310189843211,1742.5061464297762,11.64,0.9999999999996699
8,1.3999999999999995,0.07764364861664726,0.04312507947682743,0.03199178822712452,0.04895213262616128,0.01947870398701723,0.0019942569705114896,1400.8023141895133,1716.923288150701,11.520000000000001,0.9999999999996597
9,1.6000000000000003,0.08427758988601221,0.05313109188684211,0.028499759111592568,0.04116410465145172,0.020321615700115477,0.0019866227033489693,1390.9155280313753,1665.386545293129,11.330000000000002,0.9999999999995894
10,1.7999999999999998,0.09027684884714632,0.06249302389824963,0.025064371243993917,0.033533894104369244,0.021134541067426186,0.001976965376155776,1383.0670649795613,1609.1547387506932,11.21,0.9999999999994446
11,2.0,0.09572834938139431,0.07080636694795445,0.02213713223005981,0.027026704919161662,0.02179605095756782,0.0019650049910644994,1375.191318404513,1555.8829694482947,11.11,0.9999999999992588
12,2.2,0.10070383531597825,0.07802800411538134,0.019862870836298775,0.021983106120741985,0.022206505927688146,0.0019495190481575262,1365.3889479890966,1509.6131377197646,11.030000000000001,0.9999999999991375
13,2.4,0.10526304553491961,0.08495071815395186,0.01776807668433645,0.017524310357816576,0.022255655983570946,0.0019176590128111566,1349.9540870867786,1462.3034499853227,10.96,0.9999999999991955
14,2.6,0.10945612414928066,0.09086873736348641,0.01628153268915326,0.01453782355964314,0.0220467159614721,0.0018849857346901857,1331.4602054364857,1422.6154679320384,10.900000000000002,0.999999999999398
