,C/O ratio,CH4 in,CH4 out,CO out,H2 out,H2O out,CO2 out,Exit temp,Max temp,Dist to max temp,O2 conv
0,0.6000000000000001,0.04220610931192466,0.0007692858061908544,0.03615689035087245,0.05686503204031806,0.025174778314062694,0.0044938871503536724,1854.7922641346067,1937.102736016246,19.53,0.9996662661165865
1,0.7000000000000002,0.04764223879568619,0.0019313489968809476,0.041680067338847986,0.07196810237697268,0.01907043068312582,0.0036556486202061304,1612.3429142431646,1877.7255550432367,17.45,0.9999999999648296
2,0.8,0.05273657570711542,0.005609760439231963,0.043411984133185706,0.07840055846813455,0.015593186262484139,0.003459922121918256,1474.0380161171865,1831.5188038960664,16.05,0.9999999999993986
3,0.8999999999999999,0.05752037248751414,0.010007207907610945,0.04399778641572829,0.08151293638498663,0.013321300013134283,0.003346489470633222,1381.9057992820924,1790.8064929315506,15.06,0.9999999999999735
4,1.0,0.06202118410625546,0.014811875160794734,0.04387530322771289,0.08270921169248292,0.011630053114625113,0.003257921784568931,1312.1355799464845,1750.269789408673,14.34,0.9999999999999981
5,1.1,0.0662633991614029,0.01954459719801803,0.04349285933788645,0.08301590523529123,0.01037993948782702,0.003188487638151691,1259.0846626060013,1711.4489278776928,13.780000000000001,0.9999999999999998
6,1.1999999999999995,0.07026868199272561,0.024242330446595232,0.04288109402591356,0.08261858842199278,0.009417589545534077,0.003130348240028477,1216.956791580852,1673.0786993722636,13.350000000000001,1.0
7,1.2999999999999998,0.0740563427297203,0.02881807453239639,0.04215149001223932,0.08181304308535897,0.008655556310146376,0.003079983502216111,1182.5898302323358,1635.8924430609538,13.000000000000002,1.0
8,1.3999999999999995,0.07764364861664726,0.033242180382366766,0.04136182350546162,0.08075916883801709,0.008036010331035043,0.0030348704650447833,1153.898654275855,1600.4436815685601,12.71,1.0
9,1.6000000000000003,0.08427758988601221,0.04164867875881839,0.03966406831882458,0.07813350723430733,0.007111364708942298,0.0029583352789038066,1109.0159267098375,1536.334015330214,12.270000000000001,1.0
10,1.7999999999999998,0.09027684884714632,0.049427297956576625,0.03794044070969113,0.07520467781055355,0.006465939612265251,0.0028953876553423842,1075.5273059740941,1481.0103357958074,11.950000000000001,1.0
11,2.0,0.09572834938139431,0.05668236075383893,0.036207122936017605,0.07211064330382215,0.005980903641313499,0.002838651505141042,1048.903182141382,1432.5635564205934,11.71,1.0
12,2.2000000000000006,0.10070383531597826,0.06314945978850385,0.034706592363536085,0.06936244954296009,0.005635397177750997,0.002794192718436898,1028.3892323451073,1392.8004410858953,11.520000000000001,1.0
13,2.4,0.10526304553491962,0.06947570750754371,0.03304305435069558,0.06624194570809232,0.005330869755510178,0.0027439857372722177,1009.8829118734989,1354.0844686621956,11.370000000000001,1.0
14,2.6,0.10945612414928066,0.07496913109445284,0.03172154011062354,0.06373442681119268,0.005116872935785333,0.002706764658946723,995.588829485636,1323.4648851624902,11.250000000000002,1.0
