,C/O ratio,CH4 in,CH4 out,CO out,H2 out,H2O out,CO2 out,Exit temp,Max temp,Dist to max temp,O2 conv
0,0.6000000000000001,0.04220610931192466,8.469056916326601e-06,0.03810080588725444,0.06015567813489397,0.024156911301927386,0.0040435812699035015,1824.468189322122,1882.0418112042344,16.27,0.9999999941005447
1,0.7000000000000002,0.04764223879568619,3.0458792305111373e-05,0.04406732200324653,0.0782007507308524,0.016981583975863135,0.003505813650845775,1551.0110120937736,1789.4794438016568,15.100000000000001,0.9999999999945863
2,0.8,0.05273657570711542,0.0005917455955807558,0.04908303848633614,0.09352727707625214,0.010747340257732966,0.003048250275962957,1324.9360427874628,1714.5903857580759,14.33,0.9999999999999979
3,0.8999999999999999,0.05752037248751414,0.0027505157906732533,0.05225409378483957,0.10289403289846738,0.006639540401749831,0.00251084688292519,1169.862191941904,1647.4741146623485,13.790000000000003,1.0
4,1.0,0.06202118410625546,0.006708234720873621,0.053289349315008276,0.10592792275059917,0.0046935140806333405,0.0020208045973961683,1084.706567107554,1587.580385331153,13.39,1.0
5,1.1,0.0662633991614029,0.011674440935498652,0.0528752309947746,0.10523600486534003,0.003939537805657432,0.0017128986428553482,1042.062719307326,1534.9006934339418,13.080000000000002,1.0
6,1.1999999999999995,0.07026868199272561,0.016917690359840382,0.0518163099448027,0.10301933465527233,0.0036785869896614892,0.00153407380165598,1018.8376550333628,1488.6071979150818,12.830000000000002,1.0
7,1.2999999999999998,0.0740563427297203,0.022124481547845836,0.050516274235144286,0.10023905694780101,0.0036225668986510583,0.0014157617569826133,1004.1758095779898,1447.7372390697778,12.64,1.0
8,1.3999999999999995,0.07764364861664726,0.027158236291838965,0.04915897361076018,0.09730729206627901,0.0036571584572522176,0.0013264818944466903,993.7184998695345,1411.4201948041239,12.480000000000002,1.0
9,1.6000000000000003,0.08427758988601221,0.03659154391440912,0.0464899394799454,0.09151341339608543,0.003838784655681032,0.0011897768224233376,979.0243511983225,1349.7772719401476,12.25,1.0
10,1.7999999999999998,0.09027684884714632,0.04519763938981457,0.043982515094551235,0.08605252085664307,0.00406770635073956,0.0010820563901372106,968.4913719076109,1299.1159749346923,12.07,1.0
11,2.0,0.09572834938139431,0.053144749709546454,0.04159080267853492,0.08087108512342497,0.00429430285819737,0.0009910398066449947,959.837970672088,1255.4325251687221,11.930000000000001,1.0
12,2.2000000000000006,0.10070383531597826,0.060295456310659724,0.03948018773769886,0.07628942806658452,0.0045008638372233175,0.0009160781913233071,952.6928284471163,1219.3434232579903,11.82,1.0
13,2.4,0.10526304553491962,0.06692670879592062,0.03748542029283322,0.07198526939744113,0.0046791028283521725,0.000851229443236329,946.1551238346226,1187.110783976116,11.750000000000002,1.0
14,2.6,0.10945612414928066,0.07294861661168241,0.035705410003402833,0.06817395658751808,0.004816144261435032,0.0008001208996859845,940.0644572775826,1159.5117281082917,11.680000000000001,1.0
