,C/O ratio,CH4 in,CH4 out,CO out,H2 out,H2O out,CO2 out,Exit temp,Max temp,Dist to max temp,O2 conv
0,0.6000000000000001,0.04220610931192466,0.041982093120383056,0.0001317059240557941,2.8343613226228017e-12,0.0003134067600316303,2.564402584523375e-06,712.2988004733704,712.2988004998812,20.020000000000003,0.006401037130548273
1,0.7000000000000002,0.04764223879568619,0.047318235705920725,0.00019692025298767788,6.766352413884466e-12,0.0004644254439403787,4.702416031350031e-06,717.792488915037,717.7924889728899,20.01,0.009855834131864178
2,0.8,0.05273657570711542,0.05227287387527733,0.0002934157969677196,1.7166990033379027e-11,0.0006847353626728716,8.517106074340189e-06,725.6856070723934,725.6856072053216,20.01,0.015097555744047026
3,0.9000000000000001,0.05752037248751414,0.05684229780068727,0.0004520250998425451,5.265593051314542e-11,0.0010409875615510257,1.5956871881140433e-05,738.3365679064192,738.3365682560742,20.01,0.023861222656727056
4,1.0,0.06202118410625546,0.060922367429502806,0.0007923621053662849,2.9170145029660017e-10,0.0017897049378313198,3.4528560682918956e-05,764.8311102713164,764.8311112247902,20.01,0.042747539479778454
5,1.1,0.0662633991614029,0.031233920016975208,0.01579752648940615,0.019318420238417507,0.032114790908652636,0.0007845017230592478,1499.0896967456144,1716.2352377633595,19.990000000000002,0.8214989331785197
6,1.1999999999999995,0.07026868199272561,0.03367898498670116,0.03150307684816078,0.043608250110376244,0.025267723371794813,0.0008920556058512777,1505.758432675314,1753.1162717424938,18.740000000000002,0.9999999997276509
7,1.3000000000000003,0.07405634272972031,0.03942367691393141,0.03120637278108711,0.042710570332684585,0.02392706843186634,0.000915839317877597,1473.7547474928801,1725.5002448783157,17.71,0.999999999988507
8,1.3999999999999995,0.07764364861664726,0.04462808158218927,0.030172542722902155,0.040570593883814864,0.02342041471865893,0.0009324433051098299,1451.392749093521,1697.2370826040074,16.870000000000005,0.9999999999945799
9,1.6000000000000005,0.08427758988601222,0.05401281882653764,0.027873102184126555,0.03578782643212474,0.023088554206378155,0.000954279718187219,1420.1964766784579,1641.8095551485296,15.600000000000001,0.9999999999976624
10,1.7999999999999998,0.09027684884714632,0.06295534265947852,0.025330740982955867,0.03050525340707092,0.022914143911779143,0.0009537378178094314,1394.1311866203037,1582.2853090127642,14.700000000000001,0.999999999998701
11,2.0,0.09572834938139431,0.07072182931760353,0.023365954415904753,0.026481397395840704,0.022633838737887792,0.0009317623172990778,1368.8957958343312,1529.5378254375464,14.020000000000001,0.999999999999307
12,2.2,0.10070383531597825,0.07758974644484563,0.021789431243590233,0.023446613193888372,0.022199902397295947,0.000895760923949369,1342.2138770513836,1482.0441141738895,13.500000000000002,0.9999999999996657
13,2.4,0.10526304553491962,0.08368656025147783,0.020477031941283856,0.02113648204756887,0.021672222060578047,0.0008550934191416361,1314.9833459901624,1439.3693609305603,13.080000000000002,0.9999999999998478
14,2.6000000000000005,0.10945612414928066,0.08898101633358385,0.01943908639941,0.019427769342504144,0.021175897131950377,0.0008183389816897409,1290.4040895746261,1403.488392335734,12.750000000000002,0.9999999999999272
