,C/O ratio,CH4 in,CH4 out,CO out,H2 out,H2O out,CO2 out,Exit temp,Max temp,Dist to max temp,O2 conv
0,0.6000000000000001,0.04220610931192466,0.00011943085760512136,0.03969977616856067,0.05582929643368466,0.027498805345199044,0.0015713382708589067,1827.542904564204,1952.5121474721818,15.57,0.9999999910418582
1,0.7000000000000002,0.04764223879568619,0.002273502111598105,0.042606847324120005,0.06721258389731223,0.022331661282299894,0.0015867512479788362,1628.227254510262,1906.424097428109,14.46,0.9999999999290986
2,0.8,0.05273657570711542,0.008000050177803518,0.041394437099099964,0.06647303963654011,0.02127109361322689,0.0016273257233021794,1556.2793655442151,1871.9863075647863,13.700000000000001,0.9999999999875402
3,0.8999999999999999,0.05752037248751414,0.01412264735485147,0.0395226239155602,0.06344106009057651,0.021118060905169572,0.001676066269945173,1517.6284619900518,1843.6204746680348,13.160000000000002,0.9999999999946239
4,1.0,0.06202118410625546,0.020405509368367224,0.03742628355327943,0.05959819377976416,0.021138054243322293,0.0017279985756556329,1490.0135837344253,1816.734193436051,12.750000000000002,0.9999999999969013
5,1.1,0.0662633991614029,0.02641165894533222,0.03540008472930974,0.055712055898076936,0.021274467874196172,0.0017819494996710252,1469.5382489183444,1791.6183587305343,12.440000000000001,0.9999999999978615
6,1.1999999999999995,0.07026868199272561,0.032288021842318715,0.03354043559053785,0.05195339013003269,0.021341960343707812,0.0018368703941166753,1453.0433231339446,1767.2320650352667,12.190000000000001,0.9999999999983903
7,1.2999999999999998,0.0740563427297203,0.03791389819553777,0.031741578143199965,0.048257402418625334,0.02143920423871112,0.001892211492024647,1439.5475202389998,1742.7855360821118,11.99,0.9999999999986902
8,1.3999999999999995,0.07764364861664726,0.043369614945671986,0.030172458477051623,0.044861154896215276,0.02142576785553013,0.0019481919938757555,1428.173242938228,1718.2518129517148,11.840000000000002,0.9999999999988939
9,1.6000000000000003,0.08427758988601221,0.05372433166474082,0.027194016860970744,0.03830793430792638,0.021360370301275113,0.0020588546768651253,1409.4645349765049,1666.642224958267,11.590000000000002,0.999999999999122
10,1.7999999999999998,0.09027684884714632,0.06283247449118616,0.024163777538702972,0.03195609017935631,0.021642570711944264,0.002172984643341479,1395.8172516701534,1613.8145464519046,11.420000000000002,0.9999999999991435
11,2.0,0.09572834938139431,0.07076660111596668,0.021495696889020723,0.02643213354578348,0.022010122706332517,0.00228198646555288,1385.3029638981607,1565.2192137174998,11.3,0.9999999999990677
12,2.2000000000000006,0.10070383531597826,0.07848065825400415,0.01878648976223338,0.020903800455122863,0.022223379154572002,0.002386231940345871,1373.7864334821422,1514.4799051626896,11.200000000000001,0.999999999998965
13,2.4,0.10526304553491962,0.08521327791250659,0.016706275850627207,0.016769411381260608,0.02219569881707951,0.0024781807281773977,1360.1651950115909,1470.977116403946,11.11,0.9999999999990041
14,2.6,0.10945612414928066,0.09118806870636849,0.015079076047986887,0.013747662050357686,0.02192086871347182,0.0025585126766892756,1343.2809817519421,1432.3016217856893,11.040000000000001,0.999999999999208
