,C/O ratio,CH4 in,CH4 out,CO out,H2 out,H2O out,CO2 out,Exit temp,Max temp,Dist to max temp,O2 conv
0,0.6000000000000001,0.04220610931192466,0.004032584019451076,0.01290593419108202,0.030321246082886263,0.028040083952155036,0.0073225585776628445,1722.9178076566898,1948.5151633396758,12.530000000000001,0.7903187982331914
1,0.7000000000000002,0.04764223879568619,0.0076054260541151076,0.01154267795504663,0.03108953181996155,0.027927690514634097,0.007482679321015014,1655.3007951559912,1910.3080802390314,12.040000000000001,0.7998541439489644
2,0.8,0.05273657570711542,0.011542633623862566,0.010883712121957701,0.031715664413628206,0.02794073260383323,0.007633298148951201,1611.8227145438452,1880.8281309469357,11.71,0.8205889465049679
3,0.9000000000000001,0.05752037248751414,0.016258525426065,0.009517411871723823,0.030524260071225405,0.027958329370218082,0.007774189857603825,1573.894818587182,1853.2649686844763,11.47,0.829696398554225
4,0.9999999999999999,0.06202118410625546,0.02029868056059747,0.009435662989386296,0.030982972759181653,0.02799369841913352,0.00790464494512754,1552.6306849527646,1831.3212747323641,11.3,0.8584457275116512
5,1.1,0.0662633991614029,0.024609892454741714,0.009039246464958723,0.0306322650608208,0.027979390806606143,0.008023792053357154,1533.5219301222282,1809.679320420116,11.170000000000002,0.8809764204476358
6,1.2,0.07026868199272561,0.028953133758103905,0.008632217343086999,0.030036231181749536,0.027917719626821585,0.008131886496333732,1517.558025385592,1788.6879044580203,11.070000000000002,0.901974977280619
7,1.3000000000000003,0.07405634272972031,0.03341021692126793,0.00805687522090246,0.028963252852612014,0.027818256570345087,0.00822806700660663,1503.214680716374,1767.993245530367,10.990000000000002,0.9186966951640471
8,1.3999999999999995,0.07764364861664726,0.03773966892842826,0.00769486958732915,0.028091079744747116,0.02764613536551555,0.008312097440632663,1491.5736236653995,1747.2827717922298,10.93,0.9370561173988395
9,1.6000000000000003,0.08427758988601221,0.046630828097082605,0.00660012804906111,0.025285410725476364,0.027172747531593797,0.00844238247141099,1470.6099450389358,1705.386061928644,10.84,0.9618039642279576
10,1.7999999999999998,0.09027684884714632,0.055446949945351265,0.0057200565999333255,0.02232757141460305,0.026444136694509766,0.008517719736027255,1453.728018307353,1661.465548771274,10.780000000000001,0.9810572267404828
11,2.0,0.09572834938139431,0.06426808300703445,0.0048438735963728585,0.018935306563367383,0.025530339598073052,0.008533266261287505,1438.950703023575,1615.9953623262154,10.75,0.9912436420190545
12,2.2,0.10070383531597825,0.07286877807983982,0.004189787773725244,0.015582791583191594,0.024473679158040752,0.008487811963381919,1426.2845520415665,1570.3607225516744,10.730000000000002,0.9971407791200635
13,2.4,0.10526304553491962,0.0811241163787639,0.0036742420852121354,0.012275427008915176,0.02337618554870966,0.00838902206142258,1415.0932830062243,1526.5224678107481,10.71,0.9993971146080193
14,2.6000000000000005,0.10945612414928066,0.09114626752754458,0.009160664111042209,0.018784646465954413,0.016578901554080615,0.008185856854392274,1361.981052527148,1485.9433971016474,10.690000000000001,0.9999999999999938
